Time(s),Range(km),Range_Rate(km/s),Station_ID
0.0,4281.99038037235823,-1.87259216890909,2
10.0,4263.46904693987835,-1.83176354532502,2
20.0,4245.35720995018801,-1.79034115835093,2
30.0,4227.66393393115595,-1.74832260564143,2
40.0,4210.39314615766943,-1.70571853201471,2
50.0,4193.55073056664878,-1.66253211049929,2
60.0,4177.14525345618495,-1.61876691630805,2
70.0,4161.17743485670326,-1.57442965648859,2
80.0,4145.65860128860913,-1.52952844929227,2
90.0,4130.58840637900721,-1.48407308428691,2
100.0,4115.97807583493341,-1.43807063987660,2
110.0,4101.82869736377143,-1.39152956468081,2
120.0,4088.14856642764744,-1.34446135855247,2
130.0,4074.94237791098885,-1.29687760030528,2
140.0,4062.21540036686065,-1.24878685198427,2
150.0,4049.96715271649691,-1.20020661684875,2
160.0,4038.20980002218403,-1.15114741151641,2
170.0,4026.94641453103304,-1.10162349610890,2
180.0,4016.18009059344331,-1.05165134710537,2
190.0,4005.91529107402948,-1.00124392669013,2
200.0,3996.15653812054143,-0.95042212910981,2
210.0,3986.90975747631637,-0.89919804867758,2
220.0,3978.17541113710240,-0.84759119654520,2
230.0,3969.95898130692240,-0.79562433931351,2
240.0,3962.26253501410429,-0.74331240474760,2
250.0,3955.09222081216922,-0.69067554751499,2
260.0,3948.44790349411323,-0.63773649717283,2
270.0,3942.33902736976279,-0.58451611681601,2
280.0,3936.76064075278100,-0.53103264525598,2
290.0,3931.71889162551179,-0.47731339928893,2
300.0,3927.21612654291812,-0.42337745822657,2
310.0,3923.25058932221555,-0.36924978669292,2
320.0,3919.83099978392192,-0.31495342111593,2
330.0,3916.95486558085668,-0.26051267167102,2
340.0,3914.62098180715248,-0.20594954021330,2
350.0,3912.83452711523523,-0.15129068148550,2
360.0,3911.59464080411090,-0.09656267446050,2
370.0,3910.90252287377825,-0.04178722600885,2
380.0,3910.75967793014706,0.01301136728455,2
390.0,3911.16335408570149,0.06780699346511,2
400.0,3912.11553510014028,0.12257373379328,2
410.0,3913.61546186821624,0.17728793808564,2
420.0,3915.65942439279297,0.23192269337821,2
430.0,3918.25345294351837,0.28645766212621,2
440.0,3921.38967102568949,0.34086544903112,2
450.0,3925.07120019423519,0.39512106978664,2
460.0,3929.29078232894381,0.44920630733586,2
470.0,3934.05257577704833,0.50308974729129,2
480.0,3939.35154191957508,0.55675085518283,2
490.0,3945.18652172175962,0.61017246356474,2
500.0,3951.55451566311558,0.66332678964860,2
510.0,3958.45282369066399,0.71619420368947,2
520.0,3965.87702211993928,0.76875087065541,2
530.0,3973.82820802329570,0.82098256990898,2
540.0,3982.29717822011344,0.87286377628225,2
550.0,3991.28282691709592,0.92437872131637,2
560.0,4000.78177333687245,0.97550814697335,2
570.0,4010.79144928785854,1.02623377043592,2
580.0,4021.30526843315511,1.07653633802318,2
590.0,4032.31984226449094,1.12640615868339,2
600.0,4043.83137759235433,1.17582116330000,2
610.0,4055.83491288120877,1.22476920272759,2
620.0,4068.32698766680505,1.27323653808405,2
630.0,4081.29868933337502,1.32121001211038,2
640.0,4094.74795316915424,1.36867522934835,2
650.0,4108.67028398081857,1.41562369542563,2
660.0,4123.05828298731467,1.46204531674274,2
670.0,4137.91132425999149,1.50792407123761,2
680.0,4153.21829410598275,1.55325610714589,2
690.0,4168.97321294760513,1.59803267042880,2
700.0,4185.17471146205571,1.64224485513071,2
710.0,4201.81709818486343,1.68588391886003,2
720.0,4218.89117354439713,1.72894660658703,2
730.0,4236.39385434991073,1.77142583650646,2
740.0,4254.31707554189506,1.81331798701880,2
750.0,4272.65879060558655,1.85461459559971,2
760.0,4291.40851639309676,1.89531985161231,2
770.0,4310.56238823064814,1.93542266457287,2
780.0,4330.11501564622904,1.97493001961862,2
790.0,4350.05836428787461,2.01383067096485,2
800.0,4370.38909437602797,2.05213014073902,2
810.0,4391.10069755336826,2.08982568923968,2
820.0,4412.18341118664284,2.12691684670606,2
830.0,4433.63356821166963,2.16340174130826,2
840.0,4455.44904423418029,2.19928942797154,2
850.0,4477.61725184941679,2.23457453312453,2
860.0,4500.13934655325284,2.26925875947869,2
870.0,4523.00228764714484,2.30335097258448,2
880.0,4546.20536879940755,2.33684862767346,2
890.0,4569.73679066312980,2.36975243735309,2
900.0,4593.59859898665400,2.40207064902293,2
910.0,4617.77743888120040,2.43380764596363,2
920.0,4642.27051372180540,2.46496342364325,2
930.0,4667.07449852541959,2.49554441019873,2
940.0,4692.18150604653601,2.52555638764687,2
950.0,4717.58383325739851,2.55500264250503,2
960.0,4743.27948114365427,2.58389027880816,2
970.0,4769.26023630778309,2.61222178945558,2
980.0,4795.51992295039145,2.64000515566391,2
990.0,4822.05623928654859,2.66724283058387,2
1000.0,4848.86437155322983,2.69394425542644,2
1010.0,4875.93040021186334,2.72011340773571,2
1020.0,4903.26452740131481,2.74576004784725,2
1030.0,4930.84839987819942,2.77088601518477,2
1040.0,4958.68098026344433,2.79549565422216,2
1050.0,4986.75524923125158,2.81960414947925,2
1060.0,5015.07041380389273,2.84320833811703,2
1070.0,5043.61988445791303,2.86632156711531,2
1080.0,5072.39565707231304,2.88894534293718,2
1090.0,5101.39616387946171,2.91109138260454,2
1100.0,5130.61489841293132,2.93276185010550,2
1110.0,5160.05012515920862,2.95396910249509,2
1120.0,5189.69315092484612,2.97471357238511,2
1130.0,5219.54387057183249,2.99500176228633,2
1140.0,5249.59212086123807,3.01484563784653,2
1150.0,5279.83889130779789,3.03424851023929,2
1160.0,5310.27442404990688,3.05321708643413,2
1170.0,5340.90052395794919,3.07175968976159,2
1180.0,5371.70956656824546,3.08988372963884,2
1190.0,5402.69639147383987,3.10759142634955,2
1200.0,5433.85935255109507,3.12489243198878,2
1210.0,5465.19490753163063,3.14179204482693,2
1220.0,5496.69483451531596,3.15829540283230,2
1230.0,5528.35795825016157,3.17441114777190,2
1240.0,5560.18316904862240,3.19014632349316,2
1250.0,5592.15979479278758,3.20550534143023,2
1260.0,5624.28760120010429,3.22049403738773,2
1270.0,5656.57041596429281,3.23511830546720,2
1280.0,5688.99158998989697,3.24938683524737,2
1290.0,5721.55718294426242,3.26330147531034,2
1300.0,5754.25703789652835,3.27687242235102,2
1310.0,5787.09202204035591,3.29010044005760,2
1320.0,5820.05820952915019,3.30299539321343,2
1330.0,5853.14955543670749,3.31555960285904,2
1340.0,5886.36699899006180,3.32780010704200,2
1350.0,5919.70496612457737,3.33972512058741,2
1360.0,5953.15923651087815,3.35133648418319,2
1370.0,5986.73129815863103,3.36264185427531,2
1380.0,6020.41251835844014,3.37364322393836,2
1390.0,6054.20142027296697,3.38434773425522,2
1400.0,6088.09829442824775,3.39475676330085,2
1410.0,6122.09728275784437,3.40488145331226,2
1420.0,6156.19559517583730,3.41472422761879,2
1430.0,6190.39050522123125,3.42428925597540,2
1440.0,6224.68036720507371,3.43358024866234,2
1450.0,6259.05942207503267,3.44260553472832,2
1460.0,6293.53218144872244,3.45136434804000,2
1470.0,6328.08770666020246,3.45986420144259,2
1480.0,6362.72929047249636,3.46810971992479,2
1490.0,6397.44866962416745,3.47610317806553,2
1500.0,6432.24956048918193,3.48385106894122,2
1510.0,6467.12600683207074,3.49135630674163,2
1520.0,6502.07558421511567,3.49862093789587,2
1530.0,6537.09626580237455,3.50565293131721,2
1540.0,6572.18830023943246,3.51245429595935,2
1550.0,6607.34683773062534,3.51902997431300,2
1560.0,6642.56753684289106,3.52538311239376,2
3950.0,6643.36828630257514,-3.52165632135510,1
3960.0,6608.18201024878363,-3.51596656609016,1
3970.0,6573.05030281347172,-3.51006217378155,1
3980.0,6537.97942659177806,-3.50393961403048,1
3990.0,6502.97295676187787,-3.49759399951621,1
4000.0,6468.02865212387223,-3.49102115979711,1
4010.0,6433.15183323969359,-3.48421614016944,1
4020.0,6398.34523496795555,-3.47717877877784,1
4030.0,6363.60976551196563,-3.46990373514971,1
4040.0,6328.95030633946044,-3.46238270734576,1
4050.0,6294.36256990276797,-3.45461699973037,1
4060.0,6259.85582755133055,-3.44660349316236,1
4070.0,6225.43259890728859,-3.43833136464161,1
4080.0,6191.09129336439128,-3.42979963981871,1
4090.0,6156.83699012120724,-3.42100291095572,1
4100.0,6122.67122346346241,-3.41194000721579,1
4110.0,6088.59884870279893,-3.40260083915362,1
4120.0,6054.62008962925484,-3.39298636439708,1
4130.0,6020.74018753363180,-3.38308634243671,1
4140.0,5986.95821341652936,-3.37290093847356,1
4150.0,5953.28456214143080,-3.36242137982518,1
4160.0,5919.71204184868657,-3.35164248359200,1
4170.0,5886.25214422910085,-3.34056698179024,1
4180.0,5852.90111785618956,-3.32917317692783,1
4190.0,5819.66925266413455,-3.31746785787159,1
4200.0,5786.55452366228747,-3.30544707575494,1
4210.0,5753.56200193808763,-3.29310059589247,1
4220.0,5720.69302920023165,-3.28042349951086,1
4230.0,5687.95410525413445,-3.26740770457387,1
4240.0,5655.34710101928795,-3.25405319653153,1
4250.0,5622.87498448496626,-3.24034690629766,1
4260.0,5590.53982904066925,-3.22629215307336,1
4270.0,5558.34856374420906,-3.21187746059203,1
4280.0,5526.30253018309486,-3.19709053225911,1
4290.0,5494.41031243086945,-3.18193596283438,1
4300.0,5462.66688161453658,-3.16640096525672,1
4310.0,5431.08103608398596,-3.15048341081386,1
4320.0,5399.65796692945241,-3.13417391171332,1
4330.0,5368.39980952607766,-3.11746490957915,1
4340.0,5337.31135714190532,-3.10035153670815,1
4350.0,5306.39401204258502,-3.08283304438389,1
4360.0,5275.65483985488390,-3.06489070529046,1
4370.0,5245.09790699119458,-3.04652502833642,1
4380.0,5214.72694312895692,-3.02772993929798,1
4390.0,5184.54357267162050,-3.00849714926167,1
4400.0,5154.55625819374745,-2.98881815009248,1
4410.0,5124.77012416944399,-2.96868675324320,1
4420.0,5095.18350874584212,-2.94810033061755,1
4430.0,5065.80786094093128,-2.92704646912952,1
4440.0,5036.64452492452074,-2.90551911059341,1
4450.0,5007.69969069741092,-2.88351543048598,1
4460.0,4978.97752394982581,-2.86102588638191,1
4470.0,4950.48034148741954,-2.83803837297576,1
4480.0,4922.21751230099835,-2.81455683922519,1
4490.0,4894.19070085728617,-2.79056801026357,1
4500.0,4866.40649608437616,-2.76606255779097,1
4510.0,4838.87240966536683,-2.74103789111937,1
4520.0,4811.58975559836563,-2.71548717198640,1
4530.0,4784.56471692803552,-2.68940623483105,1
4540.0,4757.80330455464900,-2.66278048700065,1
4550.0,4731.31127844505409,-2.63561160385701,1
4560.0,4705.09159410017583,-2.60789260495453,1
4570.0,4679.15324249753485,-2.57961218799047,1
4580.0,4653.50292066012116,-2.55076778541425,1
4590.0,4628.13976088126947,-2.52135548373044,1
4600.0,4603.07772207892504,-2.49136652935886,1
4610.0,4578.31586332928146,-2.46080093349984,1
4620.0,4553.86363988833000,-2.42964657410355,1
4630.0,4529.72587395114351,-2.39790563283808,1
4640.0,4505.90650128799371,-2.36557083502659,1
4650.0,4482.41544717237957,-2.33263414657638,1
4660.0,4459.25578447549287,-2.29909977825818,1
4670.0,4436.43580014094096,-2.26495701065484,1
4680.0,4413.95910926177385,-2.23020738384255,1
4690.0,4391.83358333658452,-2.19484774743794,1
4700.0,4370.06408109466338,-2.15887205197407,1
4710.0,4348.65772925782949,-2.12228479967822,1
4720.0,4327.62039898247622,-2.08507940550791,1
4730.0,4306.95850494074330,-2.04725777761156,1
4740.0,4286.67757349690055,-2.00881922696197,1
4750.0,4266.78377787413137,-1.96976646414647,1
4760.0,4247.28521719085256,-1.93009328098282,1
4770.0,4228.18382824923810,-1.88980734570676,1
4780.0,4209.49054407388758,-1.84890616953662,1
4790.0,4191.20728354841958,-1.80740272996011,1
4800.0,4173.34232835264083,-1.76528731147611,1
4810.0,4155.90265063559127,-1.72257106655815,1
4820.0,4138.89466543687377,-1.67926064612587,1
4830.0,4122.32263646308547,-1.63535735456684,1
4840.0,4106.19045883866511,-1.59086741821329,1
4850.0,4090.50568794387209,-1.54580038292736,1
4860.0,4075.27580423109430,-1.50016353273577,1
4870.0,4060.50485077745952,-1.45396321624704,1
4880.0,4046.19854029438875,-1.40721098034937,1
4890.0,4032.36194656644511,-1.35991672326235,1
4900.0,4018.99987751316985,-1.31209476605033,1
4910.0,4006.12093692735971,-1.26374850928278,1
4920.0,3993.72768551611534,-1.21489867903033,1
4930.0,3981.82521211290714,-1.16555664551411,1
4940.0,3970.41769450094262,-1.11573482148639,1
4950.0,3959.51108551335028,-1.06544766914848,1
4960.0,3949.10955588810475,-1.01471471643243,1
4970.0,3939.21823930282699,-0.96355249917303,1
4980.0,3929.83994450706678,-0.91197513508155,1
4990.0,3920.98058609293957,-0.86000082772400,1
5000.0,3912.64480622301653,-0.80765458414487,1
5010.0,3904.82930962646969,-0.75495155876382,1
5020.0,3897.54529146160576,-0.70190985025951,1
5030.0,3890.79196158406830,-0.64855656434793,1
5040.0,3884.57466060536308,-0.59490877366741,1
5050.0,3878.89491079210848,-0.54098926257717,1
5060.0,3873.75709208750595,-0.48682422628357,1
5070.0,3869.15948314844582,-0.43243327857976,1
5080.0,3865.10697401376001,-0.37783953321667,1
5090.0,3861.60197437780835,-0.32307213674519,1
5100.0,3858.64727074062557,-0.26815203288198,1
5110.0,3856.24072084340105,-0.21310258122792,1
5120.0,3854.38454077366760,-0.15795407648960,1
5130.0,3853.07992219745120,-0.10272729367416,1
5140.0,3852.33188661316490,-0.04745064162714,1
5150.0,3852.13154886170059,0.00784958287138,1
5160.0,3852.48639347788958,0.06315158410996,1
5170.0,3853.39531621041851,0.11842877192321,1
5180.0,3854.85604745742603,0.17365365010311,1
5190.0,3856.86746711217847,0.22880309675527,1
5200.0,3859.43157953048922,0.28384321935901,1
5210.0,3862.54581572572215,0.33876152475311,1
5220.0,3866.20686850066249,0.39352348423479,1
5230.0,3870.41590494331058,0.44811324578906,1
5240.0,3875.16675553820323,0.50249806931334,1
5250.0,3880.46421786150904,0.55665772806791,1
5260.0,3886.30078760898959,0.61056792345542,1
5270.0,3892.67485825114136,0.66420944967596,1
5280.0,3899.58520881824916,0.71755594442502,1
5290.0,3907.02458542740260,0.77059074417039,1
5300.0,3914.99343613823476,0.82328635453689,1
5310.0,3923.48986863253822,0.87562676841808,1
5320.0,3932.50696721620989,0.92759099701480,1
5330.0,3942.03799761956589,0.97915928034562,1
5340.0,3952.08609862212461,1.03031565455301,1
5350.0,3962.64496659466340,1.08104160789039,1
5360.0,3973.70693443635764,1.13131911402191,1
5370.0,3985.27033849965301,1.18113522343629,1
5380.0,3997.32740407650454,1.23047112905653,1
5390.0,4009.87591272697682,1.27931798377520,1
5400.0,4022.91204188989741,1.32765541641252,1
5410.0,4036.42948497160432,1.37547649897418,1
5420.0,4050.41849736164068,1.42276721580649,1
5430.0,4064.88118768300774,1.46951669195885,1
5440.0,4079.80793666615455,1.51571584488194,1
5450.0,4095.19427056205086,1.56135090416682,1
5460.0,4111.03539827162149,1.60642023247801,1
5470.0,4127.32074496570476,1.65091247451289,1
5480.0,4144.04941561023770,1.69481973753610,1
5490.0,4161.21480433580109,1.73813469445845,1
5500.0,4178.81029623190352,1.78085624074618,1
5510.0,4196.83015380311099,1.82297771001857,1
5520.0,4215.26973456087671,1.86449367620631,1
5530.0,4234.11944607304758,1.90540284834977,1
5540.0,4253.37352245262809,1.94570190579446,1
5550.0,4273.03005339115407,1.98538711402279,1
5560.0,4293.08074653838048,2.02446108475119,1
5570.0,4313.51959850519961,2.06291647528417,1
5580.0,4334.33821104416984,2.10075918800039,1
5590.0,4355.53018228747351,2.13798460500540,1
5600.0,4377.09150955349560,2.17459805013695,1
5610.0,4399.02206377304992,2.21059888740520,1
5620.0,4421.30282684683425,2.24598926921812,1
5630.0,4443.93773586934822,2.28076832658485,1
5640.0,4466.91689340914127,2.31494176329616,1
5650.0,4490.23358308115894,2.34851278312810,1
5660.0,4513.88486010318047,2.38148664660736,1
5670.0,4537.86295619680732,2.41385967633761,1
5680.0,4562.16153119269802,2.44564126614822,1
5690.0,4586.77248504643194,2.47683880903874,1
5700.0,4611.69613159370692,2.50744995011411,1
5710.0,4636.92175530451368,2.53748577664153,1
5720.0,4662.44343418879998,2.56694914905595,1
5730.0,4688.25786958566096,2.59584471762212,1
5740.0,4714.35760829346782,2.62417796761336,1
5750.0,4740.73822036225283,2.65195637319367,1
5760.0,4767.39485596934173,2.67918449260794,1
5770.0,4794.32195842712008,2.70587070830024,1
5780.0,4821.51350065268252,2.73201673373850,1
5790.0,4848.96171484588376,2.75763197470350,1
5800.0,4876.66150412653678,2.78272412201128,1
5810.0,4904.61342411416445,2.80729899689511,1
5820.0,4932.80415778949191,2.83135927772610,1
5830.0,4961.23744620430443,2.85491996904390,1
5840.0,4989.90378243004034,2.87797777026487,1
5850.0,5018.79639952216985,2.90054825641935,1
5860.0,5047.91122946452379,2.92263471380898,1
5870.0,5077.24822526734260,2.94424308266052,1
5880.0,5106.79562475426337,2.96538098023328,1
5890.0,5136.55237070050225,2.98605446996727,1
5900.0,5166.51530979036033,3.00627435868055,1
5910.0,5196.67817579769326,3.02604229469020,1
5920.0,5227.03428129057193,3.04536803243598,1
5930.0,5257.58359151775039,3.06426090377594,1
5940.0,5288.31658555580361,3.08272107328375,1
5950.0,5319.23625744484343,3.10075987948385,1
5960.0,5350.33400598893877,3.11838032982025,1
5970.0,5381.60334303747823,3.13559518124031,1
5980.0,5413.04337807128468,3.15240791061101,1
5990.0,5444.64944166103305,3.16882416443730,1
6000.0,5476.41756924488982,3.18484867775776,1
6010.0,5508.34468691799066,3.20049140548418,1
6020.0,5540.42595908619478,3.21575895744992,1
6030.0,5572.65907201189111,3.23065516767100,1
6040.0,5605.03917888118303,3.24518662025835,1
6050.0,5637.56049200012421,3.25936025944120,1
6060.0,5670.22472327673313,3.27318066877034,1
6070.0,5703.02322556908530,3.28665713899432,1
6080.0,5735.95672349758024,3.29979003302702,1
6090.0,5769.01892057289297,3.31258872961242,1
6100.0,5802.20826004733499,3.32506177325621,1
6110.0,5835.52108793669777,3.33720758945757,1
6120.0,5868.95108239977162,3.34903876838740,1
6130.0,5902.49998046834662,3.36055569009933,1
6140.0,5936.15885357644220,3.37176522232929,1
6150.0,5969.93303950012069,3.38267437335419,1
6160.0,6003.81325502396612,3.39328744602647,1
6170.0,6037.79896338580511,3.40360521970254,1
6180.0,6071.88541941937456,3.41364018170065,1
6190.0,6106.06989975466422,3.42339171858888,1
6200.0,6140.34909361043810,3.43286475734631,1
6210.0,6174.72530719734459,3.44207021761497,1
6220.0,6209.19073512810974,3.45100433858812,1
6230.0,6243.74687109782190,3.45967884682939,1
6240.0,6278.38350799093587,3.46809358001013,1
6250.0,6313.10781320463138,3.47625260229041,1
6260.0,6347.90907462560790,3.48416303813862,1
6270.0,6382.78829189263342,3.49182802979042,1
6280.0,6417.74277202060512,3.49924987153053,1
6290.0,6452.77184082991243,3.50643446420253,1
6300.0,6487.87352336654112,3.51338718133385,1
6310.0,6523.03882701297607,3.52011118505922,1
6320.0,6558.27322507317785,3.52660719367269,1
6330.0,6593.57382303096892,3.53288537249303,1
6340.0,6628.92933433836970,3.53893995416749,1
6350.0,6664.34887004576831,3.54478599156097,1
9970.0,6657.73307778022809,-3.62742372113130,2
9980.0,6621.48143281083321,-3.62295154156922,2
9990.0,6585.27404939553708,-3.61828378200950,2
10000.0,6549.11825337312439,-3.61341815687528,2
10010.0,6513.00653003421485,-3.60835221236659,2
10020.0,6476.95123280636199,-3.60307566637811,2
10030.0,6440.94791005748175,-3.59759203605246,2
10040.0,6405.00123918449208,-3.59189767452435,2
10050.0,6369.11132549475315,-3.58598244710860,2
10060.0,6333.28243810027016,-3.57984839059393,2
10070.0,6297.51443461219060,-3.57348839716034,2
10080.0,6261.81260320172623,-3.56689976756873,2
10090.0,6226.17681533365976,-3.56008026547539,2
10100.0,6190.61293821496838,-3.55302204012799,2
10110.0,6155.11777778770556,-3.54572127603364,2
10120.0,6119.69790742486202,-3.53817467357330,2
10130.0,6084.35518381341808,-3.53038056299693,2
10140.0,6049.09034995876846,-3.52232864136283,2
10150.0,6013.90899601970068,-3.51401823918770,2
10160.0,5978.81079549870537,-3.50544087569937,2
10170.0,5943.80171191568388,-3.49659700545431,2
10180.0,5908.87964028969418,-3.48747869545585,2
10190.0,5874.05303512469709,-3.47807665121611,2
10200.0,5839.32072116826112,-3.46839493267853,2
10210.0,5804.68423539043215,-3.45842089302032,2
10220.0,5770.15153417935016,-3.44814991502038,2
10230.0,5735.72313654160644,-3.43758041721830,2
10240.0,5701.40203690704766,-3.42670221902530,2
10250.0,5667.19130815615881,-3.41551236101938,2
10260.0,5633.09108119151279,-3.40400409359434,2
10270.0,5599.11197680010810,-3.39217229002769,2
10280.0,5565.25178869640513,-3.38000908947119,2
10290.0,5531.51387083602913,-3.36750995060821,2
