Time(s),Delta_X(km),Delta_Y(km),Delta_Z(km),Delta_VX(km/s),Delta_VY(km/s),Delta_VZ(km/s)
0.0000,1.0000000000e+00,0.0000000000e+00,0.0000000000e+00,0.0000000000e+00,1.0000000000e-03,0.0000000000e+00
10.0000,9.9998743261e-01,9.9823042838e-03,-8.7247835836e-06,-2.5132506050e-06,9.9646327260e-04,-1.7438019126e-06
20.0000,9.9994973948e-01,1.9929312342e-02,-3.4852893805e-05,-5.0251541950e-06,9.9294061234e-04,-3.4806609821e-06
30.0000,9.9988693396e-01,2.9841160560e-02,-7.8314791608e-05,-7.5357269651e-06,9.8943116135e-04,-5.2105566932e-06
40.0000,9.9979902937e-01,3.9717976751e-02,-1.3904078696e-04,-1.0044970481e-05,9.8593406457e-04,-6.9334804977e-06
50.0000,9.9968603903e-01,4.9559880197e-02,-2.1696116892e-04,-1.2552871703e-05,9.8244847007e-04,-8.6494357476e-06
60.0000,9.9954797650e-01,5.9366981662e-02,-3.1200632475e-04,-1.5059403032e-05,9.7897352932e-04,-1.0358437624e-05
70.0000,9.9938485567e-01,6.9139383479e-02,-4.2410683182e-04,-1.7564522343e-05,9.7550839753e-04,-1.2060513063e-05
80.0000,9.9919669094e-01,7.8877179525e-02,-5.5319361400e-04,-2.0068173038e-05,9.7205223394e-04,-1.3755700679e-05
90.0000,9.9898349733e-01,8.8580455280e-02,-6.9919804264e-04,-2.2570284092e-05,9.6860420212e-04,-1.5444050685e-05
100.0000,9.9874529067e-01,9.8249287887e-02,-8.6205204752e-04,-2.5070770104e-05,9.6516347028e-04,-1.7125624809e-05
110.0000,9.9848208770e-01,1.0788374621e-01,-1.0416882233e-03,-2.7569531350e-05,9.6172921156e-04,-1.8800496215e-05
120.0000,9.9819390621e-01,1.1748389089e-01,-1.2380399467e-03,-3.0066453849e-05,9.5830060434e-04,-2.0468749411e-05
130.0000,9.9788076520e-01,1.2704977437e-01,-1.4510414903e-03,-3.2561409418e-05,9.5487683254e-04,-2.2130480160e-05
140.0000,9.9754268503e-01,1.3658144099e-01,-1.6806281456e-03,-3.5054255738e-05,9.5145708588e-04,-2.3785795386e-05
150.0000,9.9717968758e-01,1.4607892694e-01,-1.9267363414e-03,-3.7544836437e-05,9.4804056022e-04,-2.5434813081e-05
160.0000,9.9679179636e-01,1.5554226040e-01,-2.1893037738e-03,-4.0032981149e-05,9.4462645783e-04,-2.7077662202e-05
170.0000,9.9637903670e-01,1.6497146151e-01,-2.4682695048e-03,-4.2518505604e-05,9.4121398767e-04,-2.8714482571e-05
180.0000,9.9594143568e-01,1.7436654289e-01,-2.7635738770e-03,-4.5001211673e-05,9.3780236570e-04,-3.0345424793e-05
190.0000,9.9547902258e-01,1.8372750904e-01,-3.0751589566e-03,-4.7480887491e-05,9.3439081514e-04,-3.1970650121e-05
200.0000,9.9499182879e-01,1.9305435686e-01,-3.4029683993e-03,-4.9957307525e-05,9.3097856679e-04,-3.3590330362e-05
210.0000,9.9447988805e-01,2.0234707555e-01,-3.7469476620e-03,-5.2430232667e-05,9.2756485926e-04,-3.5204647768e-05
220.0000,9.9394323659e-01,2.1160564672e-01,-4.1070440866e-03,-5.4899410327e-05,9.2414893930e-04,-3.6813794916e-05
230.0000,9.9338191322e-01,2.2083004449e-01,-4.4832069925e-03,-5.7364574529e-05,9.2073006204e-04,-3.8417974599e-05
240.0000,9.9279595945e-01,2.3002023559e-01,-4.8753877672e-03,-5.9825446008e-05,9.1730749129e-04,-4.0017399709e-05
250.0000,9.9218541966e-01,2.3917617945e-01,-5.2835399629e-03,-6.2281732311e-05,9.1388049980e-04,-4.1612293114e-05
260.0000,9.9155034119e-01,2.4829782830e-01,-5.7076193953e-03,-6.4733127904e-05,9.1044836952e-04,-4.3202887539e-05
270.0000,9.9089077452e-01,2.5738512725e-01,-6.1475842494e-03,-6.7179314284e-05,9.0701039191e-04,-4.4789425442e-05
280.0000,9.9020677334e-01,2.6643801436e-01,-6.6033951907e-03,-6.9619960088e-05,9.0356586814e-04,-4.6372158883e-05
290.0000,9.8949839480e-01,2.7545642071e-01,-7.0750154764e-03,-7.2054721212e-05,9.0011410942e-04,-4.7951349393e-05
300.0000,9.8876569954e-01,2.8444027048e-01,-7.5624110732e-03,-7.4483240936e-05,8.9665443720e-04,-4.9527267845e-05
310.0000,9.8800875194e-01,2.9338948098e-01,-8.0655507818e-03,-7.6905150042e-05,8.9318618346e-04,-5.1100194314e-05
320.0000,9.8722761995e-01,3.0230396317e-01,-8.5844060650e-03,-7.9320066917e-05,8.8970869098e-04,-5.2670417964e-05
330.0000,9.8642237532e-01,3.1118362169e-01,-9.1189512268e-03,-8.1727597683e-05,8.8622131354e-04,-5.4238236906e-05
340.0000,9.8559309399e-01,3.2002835435e-01,-9.6691638255e-03,-8.4127336365e-05,8.8272341624e-04,-5.5803958029e-05
350.0000,9.8473985595e-01,3.2883805288e-01,-1.0235024436e-02,-8.6518864993e-05,8.7921437568e-04,-5.7367896883e-05
360.0000,9.8386274545e-01,3.3761260274e-01,-1.0816516862e-02,-8.8901753751e-05,8.7569358023e-04,-5.8930377529e-05
370.0000,9.8296185111e-01,3.4635188335e-01,-1.1413628199e-02,-9.1275561108e-05,8.7216043028e-04,-6.0491732391e-05
380.0000,9.8203726602e-01,3.5505576819e-01,-1.2026348903e-02,-9.3639833969e-05,8.6861433847e-04,-6.2052302111e-05
390.0000,9.8108908783e-01,3.6372412497e-01,-1.2654672857e-02,-9.5994107807e-05,8.6505472991e-04,-6.3612435400e-05
400.0000,9.8011741889e-01,3.7235681570e-01,-1.3298597457e-02,-9.8337906823e-05,8.6148104243e-04,-6.5172488887e-05
410.0000,9.7912236633e-01,3.8095369690e-01,-1.3958123690e-02,-1.0067074409e-04,8.5789272683e-04,-6.6732826965e-05
420.0000,9.7810404224e-01,3.8951461964e-01,-1.4633256222e-02,-1.0299212170e-04,8.5428924703e-04,-6.8293821632e-05
430.0000,9.7706256371e-01,3.9803942966e-01,-1.5324003491e-02,-1.0530153094e-04,8.5067008038e-04,-6.9855852334e-05
440.0000,9.7599805304e-01,4.0652796753e-01,-1.6030377804e-02,-1.0759845246e-04,8.4703471781e-04,-7.1419305808e-05
450.0000,9.7491063784e-01,4.1498006868e-01,-1.6752395441e-02,-1.0988235638e-04,8.4338266409e-04,-7.2984575909e-05
460.0000,9.7380045113e-01,4.2339556355e-01,-1.7490076732e-02,-1.1215270254e-04,8.3971343801e-04,-7.4552063456e-05
470.0000,9.7266763093e-01,4.3177427846e-01,-1.8243445586e-02,-1.1440894055e-04,8.3602657263e-04,-7.6122176105e-05
480.0000,9.7151232127e-01,4.4011603461e-01,-1.9012530446e-02,-1.1665051007e-04,8.3232161543e-04,-7.7695328119e-05
490.0000,9.7033467160e-01,4.4842064893e-01,-1.9797363749e-02,-1.1887684092e-04,8.2859812856e-04,-7.9271940240e-05
500.0000,9.6913483716e-01,4.5668793403e-01,-2.0597982189e-02,-1.2108735328e-04,8.2485568902e-04,-8.0852439512e-05
510.0000,9.6791297911e-01,4.6491769830e-01,-2.1414426828e-02,-1.2328145787e-04,8.2109388884e-04,-8.2437259098e-05
520.0000,9.6666926456e-01,4.7310974611e-01,-2.2246743108e-02,-1.2545855609e-04,8.1731233530e-04,-8.4026838119e-05
530.0000,9.6540386666e-01,4.8126387796e-01,-2.3094980893e-02,-1.2761804028e-04,8.1351065108e-04,-8.5621621476e-05
540.0000,9.6411696464e-01,4.8937989070e-01,-2.3959194496e-02,-1.2975929382e-04,8.0968847450e-04,-8.7222059686e-05
550.0000,9.6280874391e-01,4.9745757768e-01,-2.4839442731e-02,-1.3188169135e-04,8.0584545962e-04,-8.8828608693e-05
560.0000,9.6147939616e-01,5.0549672890e-01,-2.5735788959e-02,-1.3398459897e-04,8.0198127651e-04,-9.0441729704e-05
570.0000,9.6012911940e-01,5.1349713118e-01,-2.6648301151e-02,-1.3606737441e-04,7.9809561136e-04,-9.2061888996e-05
580.0000,9.5875811813e-01,5.2145856830e-01,-2.7577051960e-02,-1.3812936724e-04,7.9418816664e-04,-9.3689557746e-05
590.0000,9.5736660339e-01,5.2938082110e-01,-2.8522118794e-02,-1.4016991906e-04,7.9025866134e-04,-9.5325211836e-05
600.0000,9.5595479291e-01,5.3726366767e-01,-2.9483583896e-02,-1.4218836369e-04,7.8630683103e-04,-9.6969331676e-05
610.0000,9.5452291122e-01,5.4510688339e-01,-3.0461534436e-02,-1.4418402741e-04,7.8233242809e-04,-9.8622402009e-05
620.0000,9.5307118977e-01,5.5291024110e-01,-3.1456062609e-02,-1.4615622914e-04,7.7833522183e-04,-1.0028491173e-04
630.0000,9.5159986710e-01,5.6067351117e-01,-3.2467265737e-02,-1.4810428065e-04,7.7431499864e-04,-1.0195735368e-04
640.0000,9.5010918758e-01,5.6839646301e-01,-3.3495245043e-02,-1.5002748665e-04,7.7027156217e-04,-1.0364022457e-04
650.0000,9.4859940287e-01,5.7607886402e-01,-3.4540107008e-02,-1.5192514513e-04,7.6620473345e-04,-1.0533402468e-04
660.0000,9.4707077242e-01,5.8372047898e-01,-3.5601963858e-02,-1.5379654759e-04,7.6211435101e-04,-1.0703925766e-04
670.0000,9.4552356205e-01,5.9132107186e-01,-3.6680932179e-02,-1.5564097915e-04,7.5800027104e-04,-1.0875643042e-04
680.0000,9.4395804503e-01,5.9888040508e-01,-3.7777133860e-02,-1.5745771881e-04,7.5386236749e-04,-1.1048605286e-04
690.0000,9.4237450197e-01,6.0639823981e-01,-3.8890696032e-02,-1.5924603971e-04,7.4970053222e-04,-1.1222863771e-04
700.0000,9.4077322087e-01,6.1387433613e-01,-4.0021751025e-02,-1.6100520930e-04,7.4551467510e-04,-1.1398470035e-04
710.0000,9.3915449705e-01,6.2130845333e-01,-4.1170436338e-02,-1.6273448956e-04,7.4130472415e-04,-1.1575475857e-04
720.0000,9.3751863323e-01,6.2870035011e-01,-4.2336894618e-02,-1.6443313720e-04,7.3707062562e-04,-1.1753933246e-04
730.0000,9.3586593949e-01,6.3604978477e-01,-4.3521273662e-02,-1.6610040393e-04,7.3281234414e-04,-1.1933894411e-04
740.0000,9.3419673336e-01,6.4335651542e-01,-4.4723726417e-02,-1.6773553664e-04,7.2852986282e-04,-1.2115411753e-04
750.0000,9.3251133984e-01,6.5062030015e-01,-4.5944411005e-02,-1.6933777762e-04,7.2422318330e-04,-1.2298537835e-04
760.0000,9.3081009144e-01,6.5784089723e-01,-4.7183490753e-02,-1.7090636482e-04,7.1989232590e-04,-1.2483325369e-04
770.0000,9.2909332833e-01,6.6501806524e-01,-4.8441134238e-02,-1.7244053205e-04,7.1553732971e-04,-1.2669827194e-04
780.0000,9.2736139834e-01,6.7215156326e-01,-4.9717515340e-02,-1.7393950925e-04,7.1115825263e-04,-1.2858096253e-04
790.0000,9.2561465712e-01,6.7924115094e-01,-5.1012813318e-02,-1.7540252268e-04,7.0675517147e-04,-1.3048185579e-04
800.0000,9.2385346822e-01,6.8628658870e-01,-5.2327212883e-02,-1.7682879519e-04,7.0232818207e-04,-1.3240148266e-04
810.0000,9.2207820323e-01,6.9328763778e-01,-5.3660904292e-02,-1.7821754647e-04,6.9787739928e-04,-1.3434037456e-04
820.0000,9.2028924191e-01,7.0024406039e-01,-5.5014083453e-02,-1.7956799325e-04,6.9340295711e-04,-1.3629906314e-04
830.0000,9.1848697233e-01,7.0715561976e-01,-5.6386952036e-02,-1.8087934960e-04,6.8890500874e-04,-1.3827808009e-04
840.0000,9.1667179003e-01,7.1402208104e-01,-5.7779716650e-02,-1.8215082705e-04,6.8438372664e-04,-1.4027795696e-04
850.0000,9.1484409367e-01,7.2084321514e-01,-5.9192584689e-02,-1.8338163448e-04,6.7983930276e-04,-1.4229922530e-04
860.0000,9.1300429605e-01,7.2761879022e-01,-6.0625774704e-02,-1.8457097923e-04,6.7527194821e-04,-1.4434241576e-04
870.0000,9.1115281570e-01,7.3434857800e-01,-6.2079508535e-02,-1.8571806673e-04,6.7068189360e-04,-1.4640805832e-04
880.0000,9.0929007872e-01,7.4103235297e-01,-6.3554012931e-02,-1.8682210083e-04,6.6606938902e-04,-1.4849668208e-04
890.0000,9.0741651955e-01,7.4766989203e-01,-6.5049520263e-02,-1.8788228411e-04,6.6143470403e-04,-1.5060881494e-04
900.0000,9.0553258082e-01,7.5426097472e-01,-6.6566268388e-02,-1.8889781815e-04,6.5677812773e-04,-1.5274498347e-04
910.0000,9.0363871330e-01,7.6080538350e-01,-6.8104500531e-02,-1.8986790369e-04,6.5209996876e-04,-1.5490571266e-04
920.0000,9.0173537574e-01,7.6730290399e-01,-6.9664465178e-02,-1.9079174093e-04,6.4740055535e-04,-1.5709152574e-04
930.0000,8.9982303488e-01,7.7375332525e-01,-7.1246415991e-02,-1.9166852976e-04,6.4268023534e-04,-1.5930294401e-04
940.0000,8.9790216532e-01,7.8015643992e-01,-7.2850611743e-02,-1.9249746995e-04,6.3793937619e-04,-1.6154048661e-04
950.0000,8.9597324955e-01,7.8651204453e-01,-7.4477316262e-02,-1.9327776146e-04,6.3317836500e-04,-1.6380467033e-04
960.0000,8.9403677791e-01,7.9281993966e-01,-7.6126798399e-02,-1.9400860465e-04,6.2839760853e-04,-1.6609600941e-04
970.0000,8.9209324860e-01,7.9907993013e-01,-7.7799332013e-02,-1.9468920051e-04,6.2359753318e-04,-1.6841501534e-04
980.0000,8.9014316770e-01,8.0529182518e-01,-7.9495195969e-02,-1.9531875097e-04,6.1877858497e-04,-1.7076219665e-04
990.0000,8.8818704922e-01,8.1145543865e-01,-8.1214674153e-02,-1.9589645909e-04,6.1394122960e-04,-1.7313805871e-04
1000.0000,8.8622541514e-01,8.1757058914e-01,-8.2958055510e-02,-1.9642152935e-04,6.0908595233e-04,-1.7554310352e-04
1010.0000,8.8425879552e-01,8.2363710012e-01,-8.4725634089e-02,-1.9689316789e-04,6.0421325808e-04,-1.7797782952e-04
1020.0000,8.8228772858e-01,8.2965480009e-01,-8.6517709115e-02,-1.9731058277e-04,5.9932367128e-04,-1.8044273135e-04
1030.0000,8.8031276079e-01,8.3562352267e-01,-8.8334585064e-02,-1.9767298425e-04,5.9441773594e-04,-1.8293829969e-04
1040.0000,8.7833444703e-01,8.4154310673e-01,-9.0176571774e-02,-1.9797958504e-04,5.8949601555e-04,-1.8546502102e-04
1050.0000,8.7635335072e-01,8.4741339646e-01,-9.2043984544e-02,-1.9822960053e-04,5.8455909306e-04,-1.8802337738e-04
1060.0000,8.7437004399e-01,8.5323424144e-01,-9.3937144281e-02,-1.9842224914e-04,5.7960757083e-04,-1.9061384624e-04
1070.0000,8.7238510563e-01,8.5900549793e-01,-9.5856375608e-02,-1.9855675231e-04,5.7464207066e-04,-1.9323690035e-04
1080.0000,8.7039911165e-01,8.6472703460e-01,-9.7801998236e-02,-1.9863233408e-04,5.6966323419e-04,-1.9589300814e-04
1090.0000,8.6841265926e-01,8.7039871951e-01,-9.9774348719e-02,-1.9864822310e-04,5.6467172178e-04,-1.9858263215e-04
1100.0000,8.6642635008e-01,8.7602042858e-01,-1.0177376532e-01,-1.9860365174e-04,5.5966821318e-04,-2.0130622974e-04
1110.0000,8.6444079161e-01,8.8159204566e-01,-1.0380058922e-01,-1.9849785639e-04,5.5465340743e-04,-2.0406425280e-04
1120.0000,8.6245659958e-01,8.8711346147e-01,-1.0585516662e-01,-1.9833007789e-04,5.4962802261e-04,-2.0685714746e-04
1130.0000,8.6047439770e-01,8.9258457385e-01,-1.0793784856e-01,-1.9809956175e-04,5.4459279586e-04,-2.0968535392e-04
1140.0000,8.5849481745e-01,8.9800528804e-01,-1.1004899064e-01,-1.9780555839e-04,5.3954848326e-04,-2.1254930624e-04
1150.0000,8.5651849792e-01,9.0337551686e-01,-1.1218895287e-01,-1.9744732339e-04,5.3449585976e-04,-2.1544943216e-04
1160.0000,8.5454608556e-01,9.0869518101e-01,-1.1435809949e-01,-1.9702411771e-04,5.2943571913e-04,-2.1838615294e-04
1170.0000,8.5257823411e-01,9.1396420922e-01,-1.1655679885e-01,-1.9653520797e-04,5.2436887388e-04,-2.2135988314e-04
1180.0000,8.5061560442e-01,9.1918253850e-01,-1.1878542325e-01,-1.9597986663e-04,5.1929615511e-04,-2.2437103047e-04
1190.0000,8.4865886441e-01,9.2435011436e-01,-1.2104434884e-01,-1.9535737228e-04,5.1421841250e-04,-2.2741999559e-04
1200.0000,8.4670868895e-01,9.2946689094e-01,-1.2333395557e-01,-1.9466700987e-04,5.0913651414e-04,-2.3050717191e-04
1210.0000,8.4476575981e-01,9.3453283125e-01,-1.2565462710e-01,-1.9390807096e-04,5.0405134646e-04,-2.3363294544e-04
1220.0000,8.4283076568e-01,9.3954790730e-01,-1.2800675077e-01,-1.9307985396e-04,4.9896381408e-04,-2.3679769457e-04
1230.0000,8.4090440212e-01,9.4451210031e-01,-1.3039071758e-01,-1.9218166439e-04,4.9387483975e-04,-2.4000178990e-04
1240.0000,8.3898737160e-01,9.4942540079e-01,-1.3280692221e-01,-1.9121281511e-04,4.8878536416e-04,-2.4324559405e-04
1250.0000,8.3708038353e-01,9.5428780873e-01,-1.3525576299e-01,-1.9017262660e-04,4.8369634584e-04,-2.4652946149e-04
1260.0000,8.3518415437e-01,9.5909933370e-01,-1.3773764203e-01,-1.8906042718e-04,4.7860876103e-04,-2.4985373833e-04
1270.0000,8.3329940765e-01,9.6385999500e-01,-1.4025296522e-01,-1.8787555329e-04,4.7352360353e-04,-2.5321876213e-04
1280.0000,8.3142687418e-01,9.6856982170e-01,-1.4280214233e-01,-1.8661734974e-04,4.6844188451e-04,-2.5662486176e-04
1290.0000,8.2956729208e-01,9.7322885279e-01,-1.4538558713e-01,-1.8528516994e-04,4.6336463244e-04,-2.6007235714e-04
1300.0000,8.2772140701e-01,9.7783713723e-01,-1.4800371751e-01,-1.8387837621e-04,4.5829289283e-04,-2.6356155912e-04
1310.0000,8.2588997236e-01,9.8239473400e-01,-1.5065695564e-01,-1.8239633998e-04,4.5322772817e-04,-2.6709276926e-04
1320.0000,8.2407374554e-01,9.8690171340e-01,-1.5334572477e-01,-1.8083844180e-04,4.4817021785e-04,-2.7066627985e-04
1330.0000,8.2227347155e-01,9.9135816290e-01,-1.5607043471e-01,-1.7920407040e-04,4.4312145898e-04,-2.7428237458e-04
1340.0000,8.2048992406e-01,9.9576417427e-01,-1.5883151779e-01,-1.7749262572e-04,4.3808256400e-04,-2.7794132638e-04
1350.0000,8.1872387972e-01,1.0001198506e+00,-1.6162940651e-01,-1.7570351755e-04,4.3305466190e-04,-2.8164339836e-04
1360.0000,8.1697611668e-01,1.0044253077e+00,-1.6446453216e-01,-1.7383616558e-04,4.2803889809e-04,-2.8538884380e-04
1370.0000,8.1524741965e-01,1.0086806728e+00,-1.6733732922e-01,-1.7188999997e-04,4.2303643389e-04,-2.8917790577e-04
1380.0000,8.1353857962e-01,1.0128860849e+00,-1.7024823505e-01,-1.6986446157e-04,4.1804844646e-04,-2.9301081693e-04
1390.0000,8.1185039344e-01,1.0170416945e+00,-1.7319768959e-01,-1.6775900213e-04,4.1307612854e-04,-2.9688779940e-04
1400.0000,8.1018366363e-01,1.0211476643e+00,-1.7618613513e-01,-1.6557308449e-04,4.0812068836e-04,-3.0080906464e-04
1410.0000,8.0853919803e-01,1.0252041692e+00,-1.7921401604e-01,-1.6330618283e-04,4.0318334939e-04,-3.0477481326e-04
1420.0000,8.0691780963e-01,1.0292113963e+00,-1.8228177857e-01,-1.6095778285e-04,3.9826535017e-04,-3.0878523492e-04
1430.0000,8.0532031628e-01,1.0331695450e+00,-1.8538987069e-01,-1.5852738202e-04,3.9336794416e-04,-3.1284050814e-04
1440.0000,8.0374754060e-01,1.0370788278e+00,-1.8853874185e-01,-1.5601448975e-04,3.8849239949e-04,-3.1694080015e-04
1450.0000,8.0220030975e-01,1.0409394695e+00,-1.9172884292e-01,-1.5341862763e-04,3.8363999875e-04,-3.2108626681e-04
1460.0000,8.0067945537e-01,1.0447517081e+00,-1.9496062602e-01,-1.5073932964e-04,3.7881203884e-04,-3.2527705239e-04
1470.0000,7.9918581343e-01,1.0485157947e+00,-1.9823454448e-01,-1.4797614238e-04,3.7400983070e-04,-3.2951328947e-04
1480.0000,7.9772022418e-01,1.0522319934e+00,-2.0155105269e-01,-1.4512862524e-04,3.6923469908e-04,-3.3379509878e-04
1490.0000,7.9628353214e-01,1.0559005819e+00,-2.0491060613e-01,-1.4219635065e-04,3.6448798236e-04,-3.3812258908e-04
1500.0000,7.9487658605e-01,1.0595218512e+00,-2.0831366134e-01,-1.3917890431e-04,3.5977103229e-04,-3.4249585698e-04
1510.0000,7.9350023888e-01,1.0630961058e+00,-2.1176067588e-01,-1.3607588535e-04,3.5508521373e-04,-3.4691498683e-04
1520.0000,7.9215534792e-01,1.0666236640e+00,-2.1525210840e-01,-1.3288690658e-04,3.5043190443e-04,-3.5138005057e-04
1530.0000,7.9084277480e-01,1.0701048580e+00,-2.1878841867e-01,-1.2961159473e-04,3.4581249476e-04,-3.5589110760e-04
1540.0000,7.8956338562e-01,1.0735400336e+00,-2.2237006770e-01,-1.2624959059e-04,3.4122838750e-04,-3.6044820461e-04
1550.0000,7.8831805110e-01,1.0769295507e+00,-2.2599751776e-01,-1.2280054932e-04,3.3668099750e-04,-3.6505137550e-04
1560.0000,7.8710764665e-01,1.0802737832e+00,-2.2967123259e-01,-1.1926414058e-04,3.3217175146e-04,-3.6970064117e-04
1570.0000,7.8593305265e-01,1.0835731191e+00,-2.3339167750e-01,-1.1564004879e-04,3.2770208767e-04,-3.7439600945e-04
1580.0000,7.8479515304e-01,1.0868279607e+00,-2.3715931824e-01,-1.1192797326e-04,3.2327345577e-04,-3.7913747499e-04
1590.0000,7.8369480967e-01,1.0900387274e+00,-2.4097459937e-01,-1.0812762673e-04,3.1888731817e-04,-3.8392502025e-04
1600.0000,7.8263290375e-01,1.0932058525e+00,-2.4483797901e-01,-1.0423873804e-04,3.1454514721e-04,-3.8875861369e-04
1610.0000,7.8161033214e-01,1.0963297820e+00,-2.4874992599e-01,-1.0026105232e-04,3.1024842505e-04,-3.9363820974e-04
1620.0000,7.8062798216e-01,1.0994109777e+00,-2.5271089852e-01,-9.6194329517e-05,3.0599864497e-04,-3.9856374967e-04
1630.0000,7.7968674442e-01,1.1024499165e+00,-2.5672135497e-01,-9.2038345410e-05,3.0179731030e-04,-4.0353516103e-04
1640.0000,7.7878751242e-01,1.1054470904e+00,-2.6078175350e-01,-8.7792891708e-05,2.9764593412e-04,-4.0855235757e-04
1650.0000,7.7793118217e-01,1.1084030065e+00,-2.6489255173e-01,-8.3457776236e-05,2.9354603905e-04,-4.1361523909e-04
1660.0000,7.7711865176e-01,1.1113181875e+00,-2.6905420643e-01,-7.9032823089e-05,2.8949915694e-04,-4.1872369144e-04
1670.0000,7.7635082108e-01,1.1141931713e+00,-2.7326717325e-01,-7.4517872793e-05,2.8550682864e-04,-4.2387758632e-04
1680.0000,7.7562859150e-01,1.1170285110e+00,-2.7753190646e-01,-6.9912782457e-05,2.8157060370e-04,-4.2907678129e-04
1690.0000,7.7495286555e-01,1.1198247757e+00,-2.8184885869e-01,-6.5217425937e-05,2.7769204010e-04,-4.3432111961e-04
1700.0000,7.7432454673e-01,1.1225825497e+00,-2.8621848075e-01,-6.0431693983e-05,2.7387270397e-04,-4.3961043021e-04
1710.0000,7.7374453925e-01,1.1253024332e+00,-2.9064122145e-01,-5.5555494400e-05,2.7011416928e-04,-4.4494452756e-04
1720.0000,7.7321374787e-01,1.1279850421e+00,-2.9511752741e-01,-5.0588752194e-05,2.6641801756e-04,-4.5032321162e-04
1730.0000,7.7273307771e-01,1.1306310079e+00,-2.9964784295e-01,-4.5531409731e-05,2.6278583760e-04,-4.5574626774e-04
