Time(s),Range(km),Range_Rate(km/s),Station_ID
0.0,4281.99271016863986,-1.87259039421707,2
10.0,4263.46798845116609,-1.83176209860458,2
20.0,4245.35860579526161,-1.79033960903471,2
30.0,4227.66292858089764,-1.74832297417328,2
40.0,4210.39351277151218,-1.70571891671370,2
50.0,4193.55340311373402,-1.66253122795460,2
60.0,4177.14555786936762,-1.61876599295721,2
70.0,4161.17896231179930,-1.57442977969808,2
80.0,4145.65911852491899,-1.52952952009265,2
90.0,4130.58862677972320,-1.48407322886400,2
100.0,4115.97912497333891,-1.43807015395016,2
110.0,4101.82952390098944,-1.39152935897320,2
120.0,4088.14856828039547,-1.34446176500673,2
130.0,4074.94269079876130,-1.29687472893307,2
140.0,4062.21444838353136,-1.24878603058648,2
150.0,4049.96723465598689,-1.20020631660417,2
160.0,4038.21197875567577,-1.15114750914516,2
170.0,4026.94481745932262,-1.10162428120893,2
180.0,4016.17990997563311,-1.05165049243773,2
190.0,4005.91423418810336,-1.00124343918595,2
200.0,3996.15926188203412,-0.95041920297980,2
210.0,3986.90929494586544,-0.89919678004455,2
220.0,3978.17483516725497,-0.84759217228985,2
230.0,3969.95698928525826,-0.79562405387272,2
240.0,3962.26086940719006,-0.74331140271968,2
250.0,3955.09388299898592,-0.69067473765118,2
260.0,3948.44910012713535,-0.63773525058950,2
270.0,3942.33754324423853,-0.58451374045227,2
280.0,3936.76146439595277,-0.53103216173345,2
290.0,3931.71854189494525,-0.47731250550064,2
300.0,3927.21452280308358,-0.42337563039803,2
310.0,3923.25244626094900,-0.36924942940867,2
320.0,3919.83107905282895,-0.31495083889324,2
330.0,3916.95489423436538,-0.26050872944918,2
340.0,3914.61955794571440,-0.20595041546687,2
350.0,3912.83446718345340,-0.15128998708562,2
360.0,3911.59355517197810,-0.09656418956775,2
370.0,3910.90454415795148,-0.04178534799840,2
380.0,3910.75966315499818,0.01301147992552,2
390.0,3911.16427943141071,0.06780834736410,2
400.0,3912.11561576937720,0.12257749493333,2
410.0,3913.61499125909450,0.17728812342009,2
420.0,3915.66176340927359,0.23192593207897,2
430.0,3918.25245905750353,0.28645793883516,2
440.0,3921.38931898220380,0.34086683134150,2
450.0,3925.07127212165733,0.39512480240183,2
460.0,3929.29181940788521,0.44920573381989,2
470.0,3934.05421435758672,0.50309138022941,2
480.0,3939.35447680741117,0.55675513585892,2
490.0,3945.18752372610152,0.61017542071649,2
500.0,3951.55531138280639,0.66332701295517,2
510.0,3958.45438084081570,0.71619539548187,2
520.0,3965.87985193752775,0.76875397704011,2
530.0,3973.82729775277539,0.82098424429534,2
540.0,3982.29718085666491,0.87286716996268,2
550.0,3991.28327447293896,0.92438118114555,2
560.0,4000.78167755460527,0.97550876482011,2
570.0,4010.79404660014234,1.02623476874126,2
580.0,4021.30725314894016,1.07653965482052,2
590.0,4032.32064874516800,1.12640776328536,2
600.0,4043.83252041590595,1.17582142218937,2
610.0,4055.83841980026955,1.22476938933230,2
620.0,4068.32650829578688,1.27323636048058,2
630.0,4081.29858947637831,1.32120987323168,2
640.0,4094.74976396064130,1.36867791399692,2
650.0,4108.67198292898865,1.41562640797301,2
660.0,4123.05988732329206,1.46204691948689,2
670.0,4137.91054371792870,1.50792416255227,2
680.0,4153.21648210796775,1.55325973726083,2
690.0,4168.97264295925743,1.59803376102839,2
700.0,4185.17557629747262,1.64224657942811,2
710.0,4201.81768787383135,1.68588486675583,2
720.0,4218.89132880498801,1.72894704400561,2
730.0,4236.39672445418819,1.77142646626246,2
740.0,4254.31841760613679,1.81331926093676,2
750.0,4272.65689879323509,1.85461823198698,2
760.0,4291.40754677682526,1.89532177077778,2
770.0,4310.56312166958651,1.93542558885638,2
780.0,4330.11528368195923,1.97492998162677,2
790.0,4350.06074519172034,2.01383147933284,2
800.0,4370.39013976253773,2.05213129561722,2
810.0,4391.10057775827045,2.08982523725500,2
820.0,4412.18447838078555,2.12691604651986,2
830.0,4433.63696640037961,2.16340547019326,2
840.0,4455.45133783569599,2.19929112462426,2
850.0,4477.62041231560033,2.23457399782510,2
860.0,4500.14008936724804,2.26926121765345,2
870.0,4523.00354931848688,2.30335243190593,2
880.0,4546.20527796131228,2.33684987041590,2
890.0,4569.73772782187098,2.36975373826486,2
900.0,4593.59703918875312,2.40207401787888,2
910.0,4617.77767186950678,2.43380843357970,2
920.0,4642.27353520165161,2.46496569865770,2
930.0,4667.07503312503650,2.49554649917530,2
940.0,4692.18384529678042,2.52555936160950,2
950.0,4717.58610152896563,2.55500548016758,2
960.0,4743.27980711617874,2.58389134035822,2
970.0,4769.25988784209767,2.61222386586326,2
980.0,4795.52214615669436,2.64000610574684,2
990.0,4822.05917948617935,2.66724506179456,2
1000.0,4848.86541759154170,2.69394494444463,2
1010.0,4875.93765882923799,2.72011721443259,2
1020.0,4903.26559535218712,2.74576152190179,2
1030.0,4930.84933724817893,2.77088481572310,2
1040.0,4958.68237288193814,2.79549687257738,2
1050.0,4986.75788336675760,2.81960259911135,2
1060.0,5015.07224482341553,2.84320944528961,2
1070.0,5043.62126533530318,2.86632367702465,2
1080.0,5072.39879860296787,2.88894646534384,2
1090.0,5101.39863908978987,2.91109067804852,2
1100.0,5130.61811511493306,2.93276353030960,2
1110.0,5160.05000038331764,2.95396869193304,2
1120.0,5189.69669090207026,2.97471403607456,2
1130.0,5219.54380186065919,2.99500176287546,2
1140.0,5249.59349472251870,3.01484791280360,2
1150.0,5279.83984952840638,3.03424847925104,2
1160.0,5310.27703578818546,3.05321965093504,2
1170.0,5340.90253320220290,3.07176100828462,2
1180.0,5371.71188209188404,3.08988507600462,2
1190.0,5402.69848264293341,3.10759249080851,2
1200.0,5433.86156358030257,3.12489328623676,2
1210.0,5465.19474765398809,3.14179308521925,2
1220.0,5496.69479087137825,3.15829730354346,2
1230.0,5528.35977123949942,3.17441440849742,2
1240.0,5560.18510289961523,3.19014751487968,2
1250.0,5592.16152017666172,3.20550638101898,2
1260.0,5624.29341009432846,3.22049304518948,2
1270.0,5656.57042590768560,3.23512043366848,2
1280.0,5688.99417638876912,3.24938633797315,2
1290.0,5721.55710464152617,3.26330232064631,2
1300.0,5754.25960841073083,3.27687038591773,2
1310.0,5787.09364676229416,3.29010076534400,2
1320.0,5820.05928646565735,3.30299444401225,2
1330.0,5853.15181170469623,3.31556064750098,2
1340.0,5886.36837968740656,3.32780204761066,2
1350.0,5919.70762570190436,3.33972699101563,2
1360.0,5953.16174764156403,3.35133785392812,2
1370.0,5986.73227232345926,3.36263946695421,2
1380.0,6020.41470010188550,3.37364248941985,2
1390.0,6054.20518359818379,3.38434564036077,2
1400.0,6088.10022635771838,3.39475930582418,2
1410.0,6122.09870469892576,3.40488293414258,2
1420.0,6156.19672746379547,3.41472319004338,2
1430.0,6190.39271716512667,3.42429065201300,2
1440.0,6224.68140034956195,3.43358087224838,2
1450.0,6259.06432571365804,3.44260511459411,2
1460.0,6293.53362850483973,3.45136442284710,2
1470.0,6328.08998094298840,3.45986414998049,2
1480.0,6362.72924915371732,3.46811100266795,2
1490.0,6397.45189177114116,3.47610251757010,2
1500.0,6432.25175264689096,3.48385352299138,2
1510.0,6467.12721016390333,3.49135608413961,2
1520.0,6502.07627353943735,3.49862152627589,2
1530.0,6537.09888900729402,3.50565398556076,2
1540.0,6572.18910829426841,3.51245714087246,2
1550.0,6607.34837146451446,3.51903244519567,2
1560.0,6642.56901973299773,3.52538335983167,2
3950.0,6643.40936764140861,-3.52164463906964,1
3960.0,6608.21900526435002,-3.51595537797435,1
3970.0,6573.09160607378362,-3.51005118494759,1
3980.0,6538.02055706115516,-3.50392822702688,1
3990.0,6503.01526381598524,-3.49758142913533,1
4000.0,6468.06964867955594,-3.49100830348815,1
4010.0,6433.19231704505000,-3.48420502554759,1
4020.0,6398.38525267251225,-3.47716677719429,1
4030.0,6363.65017554148380,-3.46989109479061,1
4040.0,6328.98872656756885,-3.46237332589199,1
4050.0,6294.40341561692003,-3.45460953737943,1
4060.0,6259.89702252351617,-3.44659243407931,1
4070.0,6225.47236792564217,-3.43831891534037,1
4080.0,6191.13177178194292,-3.42978794130697,1
4090.0,6156.87761650256107,-3.42099336319955,1
4100.0,6122.71133796349932,-3.41192702331378,1
4110.0,6088.64088736929807,-3.40259080509678,1
4120.0,6054.66301538646076,-3.39297613417847,1
4130.0,6020.78032101677309,-3.38307784533443,1
4140.0,5986.99988080836556,-3.37289244936967,1
4150.0,5953.32463137857576,-3.36241285636451,1
4160.0,5919.75242647537834,-3.35163630840750,1
4170.0,5886.29259204771552,-3.34055485454977,1
4180.0,5852.94511379377309,-3.32916564771757,1
4190.0,5819.71225696970941,-3.31746170666473,1
4200.0,5786.59641581249798,-3.30544148273695,1
4210.0,5753.60292397813646,-3.29309375974851,1
4220.0,5720.73601591886018,-3.28041718355619,1
4230.0,5687.99705973332311,-3.26740261134025,1
4240.0,5655.38873176529887,-3.25404605341995,1
4250.0,5622.91670796013568,-3.24034492816569,1
4260.0,5590.58341275198291,-3.22628727646481,1
4270.0,5558.39139201807211,-3.21187177513575,1
4280.0,5526.34678743078257,-3.19708875992210,1
4290.0,5494.45141732725460,-3.18193209149010,1
4300.0,5462.71000588166316,-3.16639872708534,1
4310.0,5431.12387438410406,-3.15048148759665,1
4320.0,5399.70227672033252,-3.13417226150124,1
4330.0,5368.44221111349179,-3.11746464065734,1
4340.0,5337.35197373883238,-3.10035308085483,1
4350.0,5306.43783270296353,-3.08283114377869,1
4360.0,5275.69517703187103,-3.06489057660833,1
4370.0,5245.14099628770146,-3.04652723611823,1
4380.0,5214.76962638530222,-3.02773068915374,1
4390.0,5184.58532697111968,-3.00849875648139,1
4400.0,5154.59875719205229,-2.98882048660009,1
4410.0,5124.81300661215028,-2.96869335023642,1
4420.0,5095.22787806488668,-2.94810492694911,1
4430.0,5065.85215967790464,-2.92705110348002,1
4440.0,5036.68760046180614,-2.90552405717853,1
4450.0,5007.74231090065587,-2.88352091488881,1
4460.0,4979.01957510140710,-2.86102986138137,1
4470.0,4950.52453201198296,-2.83804992461524,1
4480.0,4922.26180087274406,-2.81456368636476,1
4490.0,4894.23430888162329,-2.79057763251017,1
4500.0,4866.44996788299159,-2.76607200606269,1
4510.0,4838.91464623815500,-2.74104736409675,1
4520.0,4811.63022469749194,-2.71549742136059,1
4530.0,4784.60514420782874,-2.68941583563199,1
4540.0,4757.84426324866945,-2.66279063314168,1
4550.0,4731.35463259056360,-2.63562412648558,1
4560.0,4705.13412465661622,-2.60790450877214,1
4570.0,4679.19541497942464,-2.57962649480079,1
4580.0,4653.54371311795876,-2.55078258199569,1
4590.0,4628.18279096106380,-2.52136997251015,1
4600.0,4603.11877229904530,-2.49138582924664,1
4610.0,4578.35689038540659,-2.46081667881303,1
4620.0,4553.90354928175657,-2.42966762951072,1
4630.0,4529.76639023149892,-2.39792500342882,1
4640.0,4505.94832204987779,-2.36559067998374,1
4650.0,4482.45469999292072,-2.33265701205698,1
4660.0,4459.29513393109391,-2.29912094359790,1
4670.0,4436.47347229851766,-2.26498062072167,1
4680.0,4413.99862119309819,-2.23023283879800,1
4690.0,4391.87085789380126,-2.19487238051997,1
4700.0,4370.10270223854150,-2.15889915884847,1
4710.0,4348.69651148817320,-2.12231132892479,1
4720.0,4327.65802278495903,-2.08510807519150,1
4730.0,4306.99747792392373,-2.04728656653979,1
4740.0,4286.71468305527014,-2.00884613778118,1
4750.0,4266.82119426766349,-1.96979528517612,1
4760.0,4247.32034603525153,-1.93012332337269,1
4770.0,4228.22137071211364,-1.88984071770396,1
4780.0,4209.52540446882722,-1.84894265797603,1
4790.0,4191.24285537561173,-1.80743633345052,1
4800.0,4173.38159790142072,-1.76532461853719,1
4810.0,4155.93994675278191,-1.72261198969947,1
4820.0,4138.92989839136317,-1.67929759017113,1
4830.0,4122.35588165046192,-1.63539840490738,1
4840.0,4106.22364898806609,-1.59090994050856,1
4850.0,4090.53802060080488,-1.54584396442783,1
4860.0,4075.30689316747385,-1.50020579830933,1
4870.0,4060.53820897296146,-1.45400681813913,1
4880.0,4046.23022671491071,-1.40725857114003,1
4890.0,4032.39435273212075,-1.35996359502263,1
4900.0,4019.03237527093052,-1.31214106621184,1
4910.0,4006.15257775244800,-1.26379800973759,1
4920.0,3993.75794936335933,-1.21494651206954,1
4930.0,3981.85486634340850,-1.16560733290261,1
4940.0,3970.44736783383587,-1.11578635268245,1
4950.0,3959.54047065943269,-1.06550044706033,1
4960.0,3949.14058773633087,-1.01476931724706,1
4970.0,3939.24645498870041,-0.96360616314620,1
4980.0,3929.86824059785658,-0.91203112264077,1
4990.0,3921.00991663547120,-0.86005919557575,1
5000.0,3912.66879361343899,-0.80771227031352,1
5010.0,3904.85456961025966,-0.75500792399728,1
5020.0,3897.57057214717906,-0.70196836264867,1
5030.0,3890.81598832436066,-0.64861537654209,1
5040.0,3884.59822341993231,-0.59497004145761,1
5050.0,3878.91615888987735,-0.54105453160298,1
5060.0,3873.77813163181281,-0.48688623029442,1
5070.0,3869.18157319675902,-0.43249762678945,1
5080.0,3865.13006126568371,-0.37790567010853,1
5090.0,3861.62305734780375,-0.32313569356217,1
5100.0,3858.66740563389521,-0.26821591837251,1
5110.0,3856.26014299355575,-0.21316902575234,1
5120.0,3854.40372856959129,-0.15802208975575,1
5130.0,3853.10015066480810,-0.10279600582708,1
5140.0,3852.34736191067850,-0.04751976800277,1
5150.0,3852.14803489436508,0.00778170990273,1
5160.0,3852.50519599562722,0.06308371923548,1
5170.0,3853.41042121894816,0.11835949644979,1
5180.0,3854.87245213907136,0.17358039043572,1
5190.0,3856.88099301530929,0.22873154929131,1
5200.0,3859.44487710700469,0.28377509956727,1
5210.0,3862.55756931232463,0.33868952837979,1
5220.0,3866.21777018201965,0.39345335325543,1
5230.0,3870.42587160449511,0.44804012454818,1
5240.0,3875.17695998052022,0.50242344237975,1
5250.0,3880.47251133322652,0.55658482333595,1
5260.0,3886.31023250921453,0.61049802413401,1
5270.0,3892.68381670894905,0.66413577365436,1
5280.0,3899.58934777404420,0.71748387056584,1
5290.0,3907.03098729019848,0.77051563520042,1
5300.0,3915.00106401828953,0.82321313356306,1
5310.0,3923.49525370072797,0.87555391080740,1
5320.0,3932.50887430220655,0.92751707161500,1
5330.0,3942.04129897260464,0.97908809601930,1
5340.0,3952.08970998979476,1.03024378821334,1
5350.0,3962.64657699168038,1.08096949709918,1
5360.0,3973.70820641949376,1.13124590956698,1
5370.0,3985.27024525937622,1.18106234088083,1
5380.0,3997.32715970717845,1.23039887223355,1
5390.0,4009.87625137468285,1.27924445624656,1
5400.0,4022.91134693458616,1.32758293611856,1
5410.0,4036.42720045657734,1.37540473108644,1
5420.0,4050.41808880389226,1.42269732419433,1
5430.0,4064.87838532569049,1.46944411090843,1
5440.0,4079.80331892064532,1.51564478631760,1
5450.0,4095.18991767611715,1.56128120924015,1
5460.0,4111.02896197817608,1.60635062663061,1
5470.0,4127.31444342572195,1.65084063949806,1
5480.0,4144.04293152700211,1.69474808065615,1
5490.0,4161.20587643208819,1.73806609144746,1
5500.0,4178.80339977746462,1.78078772104993,1
5510.0,4196.82174838325591,1.82291070922077,1
5520.0,4215.25741776117047,1.86442723592773,1
5530.0,4234.10759078893898,1.90533694966276,1
5540.0,4253.36365684302018,1.94563562345190,1
5550.0,4273.01757871679729,1.98532148007579,1
5560.0,4293.06623380678229,2.02439552211424,1
5570.0,4313.50477108122050,2.06285070513652,1
5580.0,4334.32315025134267,2.10069394414249,1
5590.0,4355.51676092917478,2.13792291002999,1
5600.0,4377.07767545136448,2.17453401909776,1
5610.0,4399.00541444065675,2.21053508755221,1
5620.0,4421.28679938328605,2.24592737288535,1
5630.0,4443.92096958520324,2.28070604404745,1
5640.0,4466.89813910082103,2.31488023716616,1
5650.0,4490.21731190250284,2.34845339176047,1
5660.0,4513.86511748104203,2.38142591568563,1
5670.0,4537.84249596221980,2.41379957798552,1
5680.0,4562.14087179521994,2.44558538650237,1
5690.0,4586.75402721541286,2.47678222508256,1
5700.0,4611.67487484271896,2.50739531243393,1
5710.0,4636.89810596456755,2.53743051624772,1
5720.0,4662.42133445390573,2.56689464777113,1
5730.0,4688.23432592146946,2.59579001782682,1
5740.0,4714.33494067079027,2.62412419391596,1
5750.0,4740.71596116112232,2.65190330802200,1
5760.0,4767.37323584879687,2.67913035081269,1
5770.0,4794.29537019506279,2.70581805238157,1
5780.0,4821.48626455591057,2.73196521812623,1
5790.0,4848.93461608045163,2.75758195346889,1
5800.0,4876.63597339627086,2.78267438334312,1
5810.0,4904.58558738824922,2.80724880607021,1
5820.0,4932.78096790005748,2.83131152426514,1
5830.0,4961.21191213919610,2.85487213582892,1
5840.0,4989.87474965305228,2.87793000337713,1
5850.0,5018.76708550653711,2.90050196637826,1
5860.0,5047.88231172677661,2.92258909647461,1
5870.0,5077.21816772322563,2.94419777910090,1
5880.0,5106.76750701201763,2.96533457143023,1
5890.0,5136.52215317603986,2.98601265251274,1
5900.0,5166.48384251990865,3.00623161102187,1
5910.0,5196.64614842400260,3.02600068007516,1
5920.0,5227.00172529573319,3.04532694260462,1
5930.0,5257.55079192132507,3.06421836444611,1
5940.0,5288.28700390292852,3.08268029052365,1
5950.0,5319.20265076389205,3.10071911893200,1
5960.0,5350.30054756642403,3.11834291872046,1
5970.0,5381.56762752557461,3.13555596310143,1
5980.0,5413.00785712126526,3.15236825516064,1
5990.0,5444.61356878815968,3.16878468532449,1
6000.0,5476.38342278705204,3.18481239823560,1
6010.0,5508.31027724269279,3.20045342103800,1
6020.0,5540.39124997885847,3.21572344936822,1
6030.0,5572.62217934667206,3.23062082387058,1
6040.0,5605.00008048710515,3.24514952870970,1
6050.0,5637.52548229406602,3.25932602767771,1
6060.0,5670.18962396781626,3.27314667537375,1
6070.0,5702.98733512541821,3.28662354391017,1
6080.0,5735.91886111396434,3.29975842923265,1
6090.0,5768.98169791139208,3.31256051889440,1
6100.0,5802.16812235413090,3.32502775844221,1
6110.0,5835.48112138009856,3.33717803799611,1
6120.0,5868.91153575779936,3.34900784655241,1
6130.0,5902.45743928791126,3.36052534691689,1
6140.0,5936.12188159736161,3.37173742267107,1
6150.0,5969.89179827712633,3.38264417964992,1
6160.0,6003.77405159228692,3.39325676159338,1
6170.0,6037.75824725438724,3.40357932733686,1
6180.0,6071.84440748197267,3.41361446645858,1
6190.0,6106.02916786013611,3.42336465334578,1
6200.0,6140.30945510406309,3.43283850113958,1
6210.0,6174.68425567242593,3.44204421166609,1
6220.0,6209.15174923592531,3.45097834775109,1
6230.0,6243.70183982294839,3.45965392723401,1
6240.0,6278.34227630405439,3.46806622353761,1
6250.0,6313.06420164147403,3.47622766912561,1
6260.0,6347.86710769250021,3.48413853584767,1
6270.0,6382.74617939165637,3.49180327831720,1
6280.0,6417.69975962658009,3.49922478662705,1
6290.0,6452.72963242095375,3.50641302995750,1
6300.0,6487.82893362913910,3.51336684147556,1
6310.0,6522.99659220473040,3.52009114700066,1
6320.0,6558.22836032694522,3.52658773304832,1
6330.0,6593.52806770354618,3.53286292125245,1
6340.0,6628.88524796691945,3.53892258353282,1
6350.0,6664.30333143603002,3.54476507439847,1
9970.0,6657.74391473321521,-3.62743348144161,2
9980.0,6621.48970595690753,-3.62296182929555,2
9990.0,6585.28296712842166,-3.61829412571256,2
10000.0,6549.12472202817480,-3.61342643524723,2
10010.0,6513.01637470081641,-3.60835878995468,2
10020.0,6476.95816176478093,-3.60308330038853,2
10030.0,6440.95526658418112,-3.59760142704437,2
10040.0,6405.00796604135394,-3.59190328593525,2
10050.0,6369.11688311367743,-3.58599160074167,2
10060.0,6333.28843048392173,-3.57985702147360,2
10070.0,6297.52146148214433,-3.57349712093110,2
10080.0,6261.81892330490518,-3.56690713863930,2
10090.0,6226.18313282115832,-3.56008716084882,2
10100.0,6190.61577363303604,-3.55302766430259,2
10110.0,6155.12360744518537,-3.54572924942893,2
10120.0,6119.70311351647706,-3.53818227093556,2
10130.0,6084.36084551526437,-3.53038743659530,2
10140.0,6049.09857957803433,-3.52233606066415,2
10150.0,6013.91694911349259,-3.51402615604710,2
10160.0,5978.81729327525863,-3.50545087077181,2
10170.0,5943.80667136318243,-3.49660504287986,2
10180.0,5908.88687515403581,-3.48748561998446,2
10190.0,5874.05842719105203,-3.47808403996507,2
10200.0,5839.32508384995617,-3.46840221015123,2
10210.0,5804.69080182917605,-3.45842932577593,2
10220.0,5770.15668619490316,-3.44815846186939,2
10230.0,5735.72969941575957,-3.43758704619107,2
10240.0,5701.40716504785723,-3.42670860325706,2
10250.0,5667.19532429140691,-3.41551794632142,2
10260.0,5633.09580978554277,-3.40401047390774,2
10270.0,5599.11780884356085,-3.39217848398782,2
10280.0,5565.25612377226025,-3.38001434918875,2
10290.0,5531.51759985665467,-3.36751479268173,2
