Time(s),Range(km),Range_Rate(km/s),Station_ID
0.0,4281.99225533395656,-1.87259166889359,2
10.0,4263.47015960836234,-1.83176335677290,2
20.0,4245.35823509890452,-1.79033984720967,2
30.0,4227.66326120736449,-1.74832199617145,2
40.0,4210.39430039540002,-1.70571829759968,2
50.0,4193.55071205058539,-1.66253286746255,2
60.0,4177.14427690215598,-1.61876720992131,2
70.0,4161.17727621615359,-1.57443087605012,2
80.0,4145.65824591306227,-1.52952859678769,2
90.0,4130.59007881214347,-1.48407527430202,2
100.0,4115.97669424054493,-1.43806974164975,2
110.0,4101.82964637536224,-1.39153065791270,2
120.0,4088.15057555145358,-1.34446157502708,2
130.0,4074.94248886773585,-1.29687723604759,2
140.0,4062.21218925601943,-1.24878815049220,2
150.0,4049.96830185563795,-1.20020587897520,2
160.0,4038.21099147730638,-1.15114774753169,2
170.0,4026.94689856600598,-1.10162529308317,2
180.0,4016.18053209281106,-1.05165231293648,2
190.0,4005.91514448519320,-1.00124498412245,2
200.0,3996.15514438396485,-0.95042111731187,2
210.0,3986.90911765757073,-0.89919812674295,2
220.0,3978.17372398836596,-0.84759263717055,2
230.0,3969.95760488759788,-0.79562392310519,2
240.0,3962.26307317709825,-0.74331163037836,2
250.0,3955.09229401483572,-0.69067694409688,2
260.0,3948.44854001162821,-0.63773681917827,2
270.0,3942.33810795741965,-0.58451483275192,2
280.0,3936.76036645874774,-0.53103314978366,2
290.0,3931.71917761552959,-0.47731239740066,2
300.0,3927.21516633832289,-0.42337824151946,2
310.0,3923.25153376296203,-0.36925093032104,2
320.0,3919.82981750419503,-0.31495276069052,2
330.0,3916.95569034728487,-0.26051272322957,2
340.0,3914.61971858616289,-0.20595106615497,2
350.0,3912.83528816585704,-0.15129366504294,2
360.0,3911.59496545531056,-0.09656393199505,2
370.0,3910.90448243133187,-0.04178633575411,2
380.0,3910.75752765342668,0.01301146898748,2
390.0,3911.16296910647407,0.06780610646422,2
400.0,3912.11282069302933,0.12257290066294,2
410.0,3913.61460727286385,0.17728463358893,2
420.0,3915.66091397036917,0.23192322792212,2
430.0,3918.25262099989686,0.28645784203213,2
440.0,3921.38921387644587,0.34086483945054,2
450.0,3925.06884930735851,0.39512012118532,2
460.0,3929.29211670297173,0.44920399483811,2
470.0,3934.05356955759089,0.50308772433849,2
480.0,3939.35239199347961,0.55675084554964,2
490.0,3945.18555792704274,0.61017128369834,2
500.0,3951.55663057717675,0.66332596302799,2
510.0,3958.45373667352123,0.71619238064812,2
520.0,3965.87886283067428,0.76875173697368,2
530.0,3973.82581711872899,0.82098429292381,2
540.0,3982.29662430498820,0.87286363178304,2
550.0,3991.28183708589404,0.92437880215134,2
560.0,4000.78344682723446,0.97550763042127,2
570.0,4010.79222750338386,1.02623142397318,2
580.0,4021.30695865900543,1.07653860599088,2
590.0,4032.32061141773920,1.12640639100422,2
600.0,4043.83402733680668,1.17582084282806,2
610.0,4055.83566447622979,1.22476993627230,2
620.0,4068.32624095672827,1.27323541225625,2
630.0,4081.29938068163801,1.32120962006183,2
640.0,4094.74816794231356,1.36867502381193,2
650.0,4108.67033116464700,1.41562458444834,2
660.0,4123.05916516183424,1.46204293996538,2
670.0,4137.91020601826585,1.50792524633600,2
680.0,4153.21741970880157,1.55325710665580,2
690.0,4168.97445537236399,1.59803410096570,2
700.0,4185.17579884577390,1.64224326510891,2
710.0,4201.81772283993178,1.68588522413143,2
720.0,4218.89048324310716,1.72894635653683,2
730.0,4236.39204753450485,1.77142512178660,2
740.0,4254.31786252037455,1.81331554561116,2
750.0,4272.65833329146335,1.85461616668246,2
760.0,4291.40805166171140,1.89532017252136,2
770.0,4310.56184237158959,1.93542454409754,2
780.0,4330.11306470422642,1.97493090546711,2
790.0,4350.05865400809125,2.01383181130619,2
800.0,4370.38958114595789,2.05213046924543,2
810.0,4391.09892771108025,2.08982297303135,2
820.0,4412.18328285096686,2.12691573283830,2
830.0,4433.63401450412857,2.16340380209988,2
840.0,4455.44745123597568,2.19928926980687,2
850.0,4477.61874919547063,2.23457324738790,2
860.0,4500.13723775100789,2.26926030700636,2
870.0,4523.00265301238142,2.30334880151656,2
880.0,4546.20429177211918,2.33684748328354,2
890.0,4569.73655902965493,2.36975298756393,2
900.0,4593.59749251378889,2.40207047561068,2
910.0,4617.77647238580357,2.43380749335780,2
920.0,4642.27263363587372,2.46496363854335,2
930.0,4667.07432137757678,2.49554469886042,2
940.0,4692.18076496689446,2.52555632543081,2
950.0,4717.58140760761034,2.55500484194100,2
960.0,4743.27849651273300,2.58388960402639,2
970.0,4769.25976659563730,2.61222204181028,2
980.0,4795.52091196515448,2.64000186683457,2
990.0,4822.05776543828597,2.66724371667641,2
1000.0,4848.86449581500165,2.69394566706610,2
1010.0,4875.93440679431205,2.72011502920673,2
1020.0,4903.26476326932607,2.74575925880158,2
1030.0,4930.84688707418991,2.77088431191184,2
1040.0,4958.68048207549509,2.79549820539445,2
1050.0,4986.75685038643132,2.81960277542627,2
1060.0,5015.06951016042512,2.84320934624664,2
1070.0,5043.61891868170642,2.86632144258931,2
1080.0,5072.39803563419355,2.88894541952472,2
1090.0,5101.39798727775724,2.91109203693072,2
1100.0,5130.61505837144432,2.93276188881195,2
1110.0,5160.05188573857322,2.95396751611593,2
1120.0,5189.69461341691203,2.97471063872951,2
1130.0,5219.54400798361439,2.99500107823018,2
1140.0,5249.59136257861337,3.01484513683120,2
1150.0,5279.83827708843364,3.03424944474970,2
1160.0,5310.27531578127127,3.05321929824872,2
1170.0,5340.90269323481243,3.07176193136532,2
1180.0,5371.70874139615171,3.08988214548950,2
1190.0,5402.69618312127386,3.10759090250600,2
1200.0,5433.85860034769667,3.12489014945694,2
1210.0,5465.19370030738901,3.14179265140835,2
1220.0,5496.69406628644083,3.15829588890125,2
1230.0,5528.35895503350821,3.17441196706730,2
1240.0,5560.18139647848420,3.19014712893685,2
1250.0,5592.16048891436003,3.20550602812819,2
1260.0,5624.29047546419406,3.22049537623987,2
1270.0,5656.56929726205999,3.23512012641793,2
1280.0,5688.99237970584181,3.24938629725188,2
1290.0,5721.55645725359773,3.26330139529285,2
1300.0,5754.25625398255488,3.27687282172174,2
1310.0,5787.09148371798074,3.29010069269913,2
1320.0,5820.05643187452006,3.30299427628542,2
1330.0,5853.15036832320948,3.31556128970028,2
1340.0,5886.36731554450671,3.32780039874761,2
1350.0,5919.70612753478235,3.33972489922807,2
1360.0,5953.16133441915008,3.35133605152365,2
1370.0,5986.73267046955425,3.36263922125071,2
1380.0,6020.41295203443315,3.37364122878072,2
1390.0,6054.20393664531366,3.38434517838651,2
1400.0,6088.09965131459376,3.39475652737644,2
1410.0,6122.09683401179882,3.40488115269406,2
1420.0,6156.19358544899751,3.41472480288152,2
1430.0,6190.38994440964143,3.42429129180687,2
1440.0,6224.68024562605660,3.43358030824892,2
1450.0,6259.06168152420651,3.44260347403670,2
1460.0,6293.53163626038167,3.45136443496076,2
1470.0,6328.08687981485764,3.45986354866675,2
1480.0,6362.72808802172767,3.46810637555893,2
1490.0,6397.44943876278739,3.47610274547610,2
1500.0,6432.24860218432241,3.48385212067244,2
1510.0,6467.12447112278733,3.49135744690450,2
1520.0,6502.07454956395941,3.49862291999131,2
1530.0,6537.09585510164834,3.50565539067072,2
1540.0,6572.18651653738016,3.51245517444490,2
1550.0,6607.34366587710974,3.51903092235835,2
1560.0,6642.56968480798423,3.52538141778943,2
3950.0,6643.37057421908594,-3.52165687257398,1
3960.0,6608.18308651188181,-3.51596825560284,1
3970.0,6573.04923983600929,-3.51006572690630,1
3980.0,6537.98192687588835,-3.50393950858255,1
3990.0,6502.97217327024737,-3.49759450762888,1
4000.0,6468.02842406381933,-3.49102308002633,1
4010.0,6433.15237815037017,-3.48421705429674,1
4020.0,6398.34485509981641,-3.47717859597770,1
4030.0,6363.61150775304395,-3.46990093816341,1
4040.0,6328.94981625005676,-3.46238317214992,1
4050.0,6294.36230875493129,-3.45461827627929,1
4060.0,6259.85544868393026,-3.44659934922065,1
4070.0,6225.43151825046425,-3.43833072885671,1
4080.0,6191.09057089160160,-3.42979955246248,1
4090.0,6156.83629243107589,-3.42100345454433,1
4100.0,6122.67266280488093,-3.41193992232932,1
4110.0,6088.59980636915498,-3.40260210190555,1
4120.0,6054.62196599527306,-3.39298459750534,1
4130.0,6020.73905580388691,-3.38308636405767,1
4140.0,5986.96116992356474,-3.37290025007773,1
4150.0,5953.28241386497575,-3.36242046124581,1
4160.0,5919.71155003106833,-3.35164287567980,1
4170.0,5886.25211990259959,-3.34056383883850,1
4180.0,5852.90137539382977,-3.32917194328944,1
4190.0,5819.67013214681083,-3.31746999293150,1
4200.0,5786.55411741250737,-3.30544701278243,1
4210.0,5753.56120339368954,-3.29309809272183,1
4220.0,5720.69306156635594,-3.28042196401706,1
4230.0,5687.95255082606309,-3.26741059621899,1
4240.0,5655.34558800411742,-3.25405175135801,1
4250.0,5622.87337994042809,-3.24034898703706,1
4260.0,5590.53929331443942,-3.22629151943128,1
4270.0,5558.34867820660475,-3.21187512033932,1
4280.0,5526.30402867886914,-3.19709045075716,1
4290.0,5494.40757876257430,-3.18193661718083,1
4300.0,5462.66823786580062,-3.16640192232038,1
4310.0,5431.08103961890902,-3.15048441098966,1
4320.0,5399.65857573454196,-3.13417324919566,1
4330.0,5368.39958839774226,-3.11746693926873,1
4340.0,5337.30939775461775,-3.10035501813276,1
4350.0,5306.39377006560062,-3.08283027238319,1
4360.0,5275.65449913437169,-3.06489071350044,1
4370.0,5245.09958425399782,-3.04652496295872,1
4380.0,5214.72736661451017,-3.02772923799197,1
4390.0,5184.54366622945054,-3.00849681500298,1
4400.0,5154.55845055273585,-2.98882029845796,1
4410.0,5124.76975302754727,-2.96868650911821,1
4420.0,5095.18494021040715,-2.94810000488380,1
4430.0,5065.80766033283544,-2.92704914659515,1
4440.0,5036.64645683186245,-2.90552108185677,1
4450.0,5007.70217369997954,-2.88351759286796,1
4460.0,4978.97689896162319,-2.86102340768889,1
4470.0,4950.48155334902640,-2.83804041305333,1
4480.0,4922.21928531038429,-2.81455571695242,1
4490.0,4894.19180773028347,-2.79056761627736,1
4500.0,4866.40882190755747,-2.76606389746137,1
4510.0,4838.87209101341887,-2.74103666705561,1
4520.0,4811.58849360658769,-2.71548740528822,1
4530.0,4784.56501973549894,-2.68940331384257,1
4540.0,4757.80404047123557,-2.66277956024913,1
4550.0,4731.31005600721073,-2.63561102031132,1
4560.0,4705.09254998187589,-2.60788880323544,1
4570.0,4679.15521975420143,-2.57961026058776,1
4580.0,4653.50345857982211,-2.55076784795059,1
4590.0,4628.14176358988243,-2.52135461773994,1
4600.0,4603.07572178143528,-2.49136777419493,1
4610.0,4578.31677319275059,-2.46080148693514,1
4620.0,4553.86223267748665,-2.42964797271560,1
4630.0,4529.72416633972261,-2.39790410242658,1
4640.0,4505.90756524041535,-2.36557081507366,1
4650.0,4482.41690522518365,-2.33263668832298,1
4660.0,4459.25799043710958,-2.29909888206530,1
4670.0,4436.43336604568958,-2.26495866694620,1
4680.0,4413.95823253662365,-2.23020719353253,1
4690.0,4391.83378082200943,-2.19484876004294,1
4700.0,4370.06358322878623,-2.15887206411619,1
4710.0,4348.65798641827041,-2.12228322952763,1
4720.0,4327.62113675981436,-2.08507981328655,1
4730.0,4306.95702696792887,-2.04725906331217,1
4740.0,4286.67872928561974,-2.00882081147491,1
4750.0,4266.78508609157325,-1.96976278797195,1
4760.0,4247.28434396213197,-1.93009376094029,1
4770.0,4228.18361544353775,-1.88980399688466,1
4780.0,4209.48996645742864,-1.84890977108447,1
4790.0,4191.20719246860062,-1.80740132952517,1
4800.0,4173.34398296408108,-1.76528872445899,1
4810.0,4155.90420986000208,-1.72257479270458,1
4820.0,4138.89370368468190,-1.67926164737907,1
4830.0,4122.32038507805737,-1.63535761807509,1
4840.0,4106.19039883063124,-1.59086856396242,1
4850.0,4090.50526101573769,-1.54580035109622,1
4860.0,4075.27504456206225,-1.50016478799710,1
4870.0,4060.50513113141369,-1.45396430048396,1
4880.0,4046.19723876885200,-1.40721079366172,1
4890.0,4032.36156995411466,-1.35991673666647,1
4900.0,4019.00165837917439,-1.31209247179028,1
4910.0,4006.11909158361414,-1.26374970233743,1
4920.0,3993.72963699953971,-1.21489822721020,1
4930.0,3981.82425203504727,-1.16555646949003,1
4940.0,3970.41800854212988,-1.11573541182021,1
4950.0,3959.51228776823200,-1.06544905246171,1
4960.0,3949.11214424871787,-1.01471513633264,1
4970.0,3939.22168861427645,-0.96355230833874,1
4980.0,3929.84177371522173,-0.91197479199122,1
4990.0,3920.98098468351418,-0.86000235539211,1
5000.0,3912.64253059524935,-0.80765543413235,1
5010.0,3904.83075345842417,-0.75495146159628,1
5020.0,3897.54512733660340,-0.70191167251338,1
5030.0,3890.79155332981509,-0.64855669404399,1
5040.0,3884.57355529519737,-0.59490872186924,1
5050.0,3878.89389418178553,-0.54098926934054,1
5060.0,3873.75612005957237,-0.48682276696393,1
5070.0,3869.16025677789048,-0.43243176484642,1
5080.0,3865.10842512815407,-0.37784130117512,1
5090.0,3861.60224841605032,-0.32307286668127,1
5100.0,3858.64715685297506,-0.26815302479469,1
5110.0,3856.24018848941523,-0.21310602680376,1
5120.0,3854.38631548443618,-0.15795346369871,1
5130.0,3853.08114762360947,-0.10272790466355,1
5140.0,3852.33057530385531,-0.04745102445569,1
5150.0,3852.13511570789660,0.00784913601190,1
5160.0,3852.48797643393664,0.06315414468852,1
5170.0,3853.39470007637556,0.11842952555162,1
5180.0,3854.85579986784887,0.17365405724934,1
5190.0,3856.87073767742140,0.22880028704779,1
5200.0,3859.43034750310517,0.28384420310465,1
5210.0,3862.54260515058195,0.33875889416767,1
5220.0,3866.20569739606026,0.39352533757602,1
5230.0,3870.41608717106465,0.44811020592999,1
5240.0,3875.16876663437961,0.50249692628711,1
5250.0,3880.46307494139410,0.55665685870499,1
5260.0,3886.29849770704550,0.61056815109197,1
5270.0,3892.67168555061744,0.66420862310490,1
5280.0,3899.58270953970668,0.71755951747985,1
5290.0,3907.02332024631778,0.77058921743406,1
5300.0,3914.99560740558309,0.82328577631224,1
5310.0,3923.49069799627614,0.87562596553308,1
5320.0,3932.50658442404665,0.92759203350920,1
5330.0,3942.03849157768445,0.97915937740101,1
5340.0,3952.08835647434989,1.03031562753865,1
5350.0,3962.64608727325958,1.08104215896821,1
5360.0,3973.70706812169237,1.13132012690193,1
5370.0,3985.26588598325316,1.18113403695341,1
5380.0,3997.32822700518500,1.23047255158970,1
5390.0,4009.87896213346494,1.27931755104514,1
5400.0,4022.91224004594642,1.32765802775255,1
5410.0,4036.42743231908344,1.37547448222957,1
5420.0,4050.42048336501557,1.42276679045645,1
5430.0,4064.88109600605549,1.46951706607826,1
5440.0,4079.80805079590073,1.51571614870684,1
5450.0,4095.19648238833224,1.56135235477509,1
5460.0,4111.03406908967918,1.60641888905896,1
5470.0,4127.32150621039727,1.65091054324153,1
5480.0,4144.05027601680467,1.69481791525103,1
5490.0,4161.21474340642999,1.73813619098199,1
5500.0,4178.81152692875912,1.78085711080796,1
5510.0,4196.83076294569764,1.82297688478505,1
5520.0,4215.26795945960203,1.86449445385562,1
5530.0,4234.11879463095283,1.90540326586504,1
5540.0,4253.37592352573392,1.94570255896706,1
5550.0,4273.03060747301970,1.98538819579385,1
5560.0,4293.08133311080110,2.02445814311693,1
5570.0,4313.51733340474402,2.06291719521426,1
5580.0,4334.33628065399898,2.10075985063921,1
5590.0,4355.53309582208203,2.13798479005754,1
5600.0,4377.09422336414355,2.17459880272237,1
5610.0,4399.02164834308860,2.21059914364166,1
5620.0,4421.30469586866184,2.24598732231195,1
5630.0,4443.93840391922822,2.28076769255873,1
5640.0,4466.91556523064355,2.31494217109489,1
5650.0,4490.23469639582709,2.34851369410034,1
5660.0,4513.88472800424915,2.38148504178210,1
5670.0,4537.86300376531199,2.41385994429514,1
5680.0,4562.16178943852083,2.44564244722510,1
5690.0,4586.77470371539675,2.47683811704027,1
5700.0,4611.69456222390272,2.50745052916380,1
5710.0,4636.91987427385902,2.53748594516282,1
5720.0,4662.44513204755094,2.56694839397999,1
5730.0,4688.25765580781081,2.59584461795713,1
5740.0,4714.35930429906512,2.62417860054445,1
5750.0,4740.73818945789662,2.65195713987433,1
5760.0,4767.39600999596223,2.67918275653433,1
5770.0,4794.32146941480187,2.70586862550468,1
5780.0,4821.51118917744316,2.73201626836757,1
5790.0,4848.95916795011362,2.75762942122047,1
5800.0,4876.66231649250403,2.78272516825268,1
5810.0,4904.61378228124704,2.80729751886864,1
5820.0,4932.80458624586936,2.83136162352002,1
5830.0,4961.24002530370308,2.85491897703758,1
5840.0,4989.90259953735222,2.87797799501295,1
5850.0,5018.79602381119457,2.90054847379232,1
5860.0,5047.91256057031478,2.92263396691644,1
5870.0,5077.24732464166664,2.94424533923374,1
5880.0,5106.79534018023787,2.96538279338733,1
5890.0,5136.55145354424985,2.98605711008968,1
5900.0,5166.51639372575937,3.00627399951459,1
5910.0,5196.67810613006895,3.02604351445435,1
5920.0,5227.03428276793056,3.04537089805858,1
5930.0,5257.58317054954568,3.06425949077502,1
5940.0,5288.31791114606949,3.08271969845831,1
5950.0,5319.23812726705819,3.10075873589720,1
5960.0,5350.33160782218147,3.11838049542436,1
5970.0,5381.60347401583203,3.13559491062236,1
5980.0,5413.04244559237213,3.15240775914103,1
5990.0,5444.64987384752476,3.16882227071743,1
6000.0,5476.41703360808970,3.18484979973122,1
6010.0,5508.34461157375699,3.20049146690119,1
6020.0,5540.42743556785354,3.21575921673712,1
6030.0,5572.65956341788387,3.23065483626418,1
6040.0,5605.03742856705685,3.24518584786273,1
6050.0,5637.56195731697426,3.25935951348831,1
6060.0,5670.22365563294352,3.27318102138558,1
6070.0,5703.02527134177126,3.28665551734078,1
6080.0,5735.95819950167970,3.29978877193109,1
6090.0,5769.01943531397683,3.31259047373660,1
6100.0,5802.20875853036250,3.32506131304824,1
6110.0,5835.51764229818491,3.33720832790037,1
6120.0,5868.95142481872699,3.34903684421299,1
6130.0,5902.49896234482640,3.36055402581805,1
6140.0,5936.16155967311261,3.37176656522333,1
6150.0,5969.93298891187624,3.38267258301444,1
6160.0,6003.81172708293434,3.39328496601060,1
6170.0,6037.79854701997374,3.40360657783995,1
6180.0,6071.88390941859961,3.41363943638106,1
6190.0,6106.07112172967754,3.42339218123515,1
6200.0,6140.35004665871656,3.43286839347441,1
6210.0,6174.72643896789396,3.44207071786442,1
6220.0,6209.19194783256717,3.45100481528504,1
6230.0,6243.74430198664686,3.45967777902888,1
6240.0,6278.38664994020928,3.46809225616553,1
6250.0,6313.10685978722540,3.47625310838773,1
6260.0,6347.90861414968003,3.48416161941297,1
6270.0,6382.78795042223283,3.49182757603552,1
6280.0,6417.74646876782845,3.49925121978797,1
6290.0,6452.77271931204268,3.50643553172264,1
6300.0,6487.87137750870716,3.51338748542583,1
6310.0,6523.04033513340528,3.52011084532495,1
6320.0,6558.27345005201551,3.52660946838461,1
6330.0,6593.57249034535380,3.53288538013220,1
6340.0,6628.93175213622544,3.53894164320903,1
6350.0,6664.35010483311908,3.54478589243171,1
9970.0,6657.73678960580219,-3.62742388330610,2
9980.0,6621.48288153621888,-3.62295189795955,2
9990.0,6585.27603469664882,-3.61828357459048,2
10000.0,6549.11784014322257,-3.61342011605392,2
10010.0,6513.00804052809053,-3.60834893208739,2
10020.0,6476.95220876619624,-3.60307581163516,2
10030.0,6440.94771937137557,-3.59759377659873,2
10040.0,6405.00146753681747,-3.59189582272249,2
10050.0,6369.11024567077675,-3.58598165692023,2
10060.0,6333.28052146079153,-3.57984795025346,2
10070.0,6297.51390153595275,-3.57348663857197,2
10080.0,6261.81383445788288,-3.56690080807142,2
10090.0,6226.17781708300845,-3.56007868835448,2
10100.0,6190.61055833192040,-3.55302278379680,2
10110.0,6155.11709726669960,-3.54572138639588,2
10120.0,6119.69781778394372,-3.53817463333406,2
10130.0,6084.35395707364023,-3.53037958113058,2
10140.0,6049.09018612800446,-3.52232903604129,2
10150.0,6013.90842178135517,-3.51401681034630,2
10160.0,5978.81183687581415,-3.50544215843048,2
10170.0,5943.80232072840317,-3.49659714414810,2
10180.0,5908.88151986260436,-3.48747709045796,2
10190.0,5874.05300545396585,-3.47807797258488,2
10200.0,5839.32074484279019,-3.46839442265771,2
10210.0,5804.68679491210150,-3.45842160249001,2
10220.0,5770.15272763397479,-3.44814929061587,2
10230.0,5735.72266929392208,-3.43757986144214,2
10240.0,5701.40264849202595,-3.42670319216635,2
10250.0,5667.19002385186468,-3.41551300346491,2
10260.0,5633.09153364553549,-3.40400412080899,2
10270.0,5599.11031068823104,-3.39217020303008,2
10280.0,5565.25117124651297,-3.38000868807100,2
10290.0,5531.51249131136410,-3.36750822368339,2
